Timestamp,PPG_Forehead,PPG_Earlobe,PPG_Finger
0.0105314999999999,0.185546875,0.185546875,11.3818359375
0.0207527000000001,0.185546875,0.185546875,0.185546875
0.0281840999999998,0.185546875,0.185546875,0.185546875
0.0330086999999999,0.185546875,0.185546875,0.185546875
0.0382940000000001,0.185546875,0.185546875,0.185546875
0.0462037999999998,0.185546875,0.185546875,0.185546875
0.0489112999999999,120.8740234375,126.4501953125,0.185546875
0.0524455000000001,-51.5380859375,18.6279296875,82.6025390625
0.0543181000000001,-51.3427734375,19.0673828125,-36.4208984375
0.0555336999999998,-52.3193359375,18.7255859375,-40.4248046875
0.0588823000000001,-53.2470703125,18.5791015625,-45.3076171875
0.0602865000000001,-53.6865234375,18.5302734375,-50.9716796875
0.0614919999999999,-53.4423828125,18.3349609375,-56.0009765625
0.0625912,-53.4912109375,17.8955078125,-60.9326171875
0.0643918999999999,-53.1005859375,17.6513671875,-65.8154296875
0.0660745999999999,-54.3701171875,17.4560546875,-70.5029296875
0.0671895,-54.9072265625,19.5068359375,-71.1865234375
0.0692800999999998,-55.8837890625,22.8271484375,-51.8505859375
0.0704634,-57.0556640625,26.0009765625,-22.1630859375
0.0720424999999998,-57.5927734375,26.3916015625,-0.3857421875
0.0754440000000001,-58.2763671875,28.1005859375,10.0146484375
0.0768276000000001,-59.4482421875,29.4189453125,10.7470703125
0.0802166,-60.2783203125,29.7607421875,5.1806640625
0.0832720999999998,-61.2548828125,27.9541015625,-4.2431640625
0.086449,-60.0830078125,28.6376953125,-16.7431640625
0.0876182999999999,-56.8115234375,29.6142578125,-26.7529296875
0.0899302999999998,-54.0771484375,29.5166015625,-32.0751953125
0.0923191000000001,-51.6357421875,29.2724609375,-32.5146484375
0.0940337000000002,-51.2939453125,27.9541015625,-32.4658203125
0.0957618,-51.5869140625,27.3193359375,-33.8818359375
0.0968732999999999,-51.8310546875,27.3193359375,-37.0068359375
0.0988821,-52.7099609375,27.3681640625,-41.7431640625
0.1001249,-53.0029296875,27.3681640625,-47.5537109375
0.1019637,-54.1259765625,26.5869140625,-53.8037109375
0.1038628,-53.2958984375,25.7080078125,-58.8330078125
0.1052838,-53.4423828125,25.8056640625,-63.9599609375
0.1076442,-54.6630859375,25.2685546875,-69.0869140625
0.1089605,-55.3466796875,26.9775390625,-73.4814453125
0.11009,-55.4931640625,29.2236328125,-60.1025390625
0.1121669,-56.5185546875,32.3486328125,-29.6337890625
0.1134286,-57.8369140625,32.5439453125,-3.3154296875
0.1151867,-58.3740234375,33.1787109375,11.0888671875
0.1166717,-59.5947265625,35.1806640625,15.2880859375
0.1178045,-59.8388671875,35.6201171875,12.5048828125
0.1198929,-61.0595703125,34.5947265625,5.0341796875
0.1212195,-61.5966796875,33.9111328125,-5.9521484375
0.1226551,-58.4228515625,34.4970703125,-17.3291015625
0.1247543,-55.4931640625,34.4482421875,-23.6767578125
0.1259645,-53.3935546875,34.4970703125,-27.3388671875
0.1276296,-52.1728515625,33.6181640625,-27.8759765625
0.1293652,-51.6845703125,33.5205078125,-29.4873046875
0.1304954,-51.5869140625,33.5205078125,-31.7822265625
0.1322452,-52.1728515625,32.8857421875,-35.2490234375
0.1336584,-52.8076171875,32.3974609375,-41.1083984375
0.1348893,-53.0517578125,32.2021484375,-47.0166015625
0.1367604,-53.1982421875,31.3720703125,-52.2900390625
0.1378961,-52.8076171875,30.3466796875,-56.9775390625
0.1389166,-53.0517578125,30.0537109375,-61.9091796875
0.140193,-53.7841796875,28.8330078125,-67.7685546875
0.1412285,-54.9560546875,30.4931640625,-71.3330078125
0.1422463,-55.2490234375,32.1533203125,-58.4423828125
0.1433455,-56.0791015625,34.4970703125,-27.9248046875
0.144363,-57.1533203125,35.9130859375,-1.1181640625
0.1454012,-58.3740234375,36.4501953125,14.5556640625
0.1464193,-58.9111328125,37.5732421875,19.3896484375
0.1474441,-60.1318359375,37.7197265625,18.1689453125
0.1484571,-61.1572265625,36.4013671875,10.5517578125
0.1494843,-61.3037109375,35.8154296875,0.6884765625
0.150503,-58.7158203125,34.8388671875,-10.6884765625
0.1515298,-55.0537109375,35.3759765625,-17.2314453125
0.1525574,-52.9541015625,33.5693359375,-20.6494140625
0.1535769,-51.3427734375,31.8603515625,-22.1630859375
0.1546205,-51.0009765625,30.2001953125,-23.1396484375
0.1556578,-50.8544921875,28.5888671875,-25.0439453125
0.1567324,-50.4638671875,28.0517578125,-29.1455078125
0.1577773,-51.5380859375,26.7822265625,-34.1259765625
0.158804,-51.9287109375,26.4404296875,-39.5947265625
0.1598131,-51.9287109375,25.3662109375,-44.6728515625
0.1608346,-52.1240234375,24.3896484375,-49.0185546875
0.1618641,-52.4169921875,22.9248046875,-54.0478515625
0.1629106,-52.5634765625,21.8994140625,-59.9072265625
0.1639537,-53.1982421875,21.1669921875,-64.2529296875
0.1650322,-54.1259765625,22.3388671875,-63.7158203125
0.1661702,-55.2490234375,24.8291015625,-41.3037109375
0.1672069,-56.3720703125,25.3662109375,-10.6884765625
0.1682147,-57.2998046875,26.2939453125,11.1376953125
0.169243,-57.4951171875,26.7333984375,21.1474609375
0.1702608,-58.6669921875,27.1240234375,22.9052734375
0.1713644,-59.9853515625,26.9287109375,17.7294921875
0.1725781,-61.0595703125,25.9033203125,9.1845703125
0.1737305,-60.5712890625,24.6826171875,-1.8505859375
0.1747496,-57.3486328125,24.7314453125,-10.9814453125
0.1758023,-54.3701171875,24.1943359375,-15.5712890625
0.1768303,-52.5146484375,22.9736328125,-16.6455078125
0.1778787,-51.4404296875,22.4365234375,-17.1826171875
0.178904,-51.3916015625,22.0458984375,-18.5009765625
0.1799393,-51.0498046875,21.2158203125,-21.5771484375
0.1809526,-51.2939453125,20.0927734375,-26.0693359375
0.1819803,-51.9775390625,19.1162109375,-30.3662109375
0.1830988,-52.1728515625,18.3349609375,-36.4697265625
0.1841136,-51.9287109375,17.2119140625,-41.2060546875
0.1851208,-52.2216796875,16.1865234375,-46.3330078125
0.1862341,-52.8076171875,15.0146484375,-51.7529296875
0.1872452,-52.9541015625,15.3564453125,-56.0986328125
0.1883638,-53.5888671875,16.8701171875,-50.5810546875
0.1895006,-54.9072265625,18.7255859375,-26.0205078125
0.1905858,-55.6396484375,19.8974609375,0.0537109375
0.1917649,-56.2255859375,20.5322265625,15.8740234375
0.1928307,-57.4462890625,21.3623046875,21.0498046875
0.1938724,-58.5205078125,21.5087890625,19.8779296875
0.1952255,-59.3994140625,19.8974609375,12.9931640625
0.1962933,-60.2783203125,18.6767578125,1.7626953125
0.1973312,-58.9599609375,18.6279296875,-10.2490234375
0.1985199,-56.0791015625,19.7998046875,-16.9873046875
0.1996572,-53.6376953125,18.4814453125,-18.3544921875
0.2007233,-51.7822265625,17.7001953125,-18.9892578125
0.2018666,-51.4892578125,17.2607421875,-18.8427734375
0.2029077,-50.8544921875,18.0908203125,-21.5771484375
0.2047195,-50.7568359375,18.1396484375,-25.1416015625
0.2058377,-51.8310546875,16.9189453125,-30.0732421875
0.206858,-52.3681640625,16.5283203125,-34.8583984375
0.2079706,-52.8564453125,16.2353515625,-39.8388671875
0.2090248,-53.0517578125,15.0146484375,-45.2587890625
0.2100659,-52.9052734375,14.9169921875,-50.2392578125
0.2111046,-53.3447265625,14.0869140625,-55.8544921875
0.2121236,-54.1259765625,16.5771484375,-52.4853515625
0.2131619,-55.2490234375,19.3603515625,-29.5849609375
0.2141772,-55.5419921875,21.3623046875,-2.8271484375
0.2152214,-56.2255859375,22.0458984375,14.3603515625
0.2162296,-57.3486328125,23.2666015625,22.2705078125
0.2172365,-58.1787109375,24.8779296875,21.5380859375
0.2182827,-58.9111328125,24.0966796875,15.4345703125
0.2192986,-60.1806640625,22.3876953125,5.2294921875
0.2204534,-60.0830078125,22.7783203125,-7.2216796875
0.2214967,-57.1533203125,23.6572265625,-14.5458984375
0.2225826,-54.0771484375,23.4130859375,-17.9150390625
0.2235997,-53.1005859375,21.8505859375,-18.9404296875
0.2246958,-51.8310546875,20.8251953125,-19.4775390625
0.225811,-50.7568359375,20.9228515625,-21.8701171875
0.2269315,-51.1962890625,20.7763671875,-25.2880859375
0.2279919,-51.7822265625,20.6298828125,-29.8779296875
0.2290376,-52.2216796875,20.3857421875,-34.6630859375
0.230053,-52.8564453125,20.3857421875,-40.0341796875
0.2311044,-52.9541015625,19.6533203125,-44.8193359375
0.2321186,-53.0517578125,18.8232421875,-50.4345703125
0.2331608,-53.5888671875,19.0673828125,-55.6103515625
0.2341847,-54.2236328125,19.7998046875,-58.1005859375
0.2352211,-54.7119140625,21.8505859375,-41.1083984375
0.2362568,-55.7861328125,25.1220703125,-12.1044921875
0.2373075,-56.9580078125,26.0986328125,12.3095703125
0.2727769,-57.5927734375,26.6357421875,23.7841796875
0.3020504,-58.5205078125,27.6611328125,26.7138671875
0.3192306,-60.3759765625,28.0517578125,23.3935546875
0.3586198,-60.4736328125,27.5634765625,16.0205078125
0.3817508,-61.7919921875,26.6845703125,6.3037109375
0.4216239,-59.6923828125,27.8564453125,-4.0478515625
0.4428057,-55.8837890625,28.4912109375,-10.5419921875
0.4828222,-53.1494140625,27.6611328125,-12.4951171875
0.5045223,-51.7822265625,27.3681640625,-14.1552734375
0.5452423,-51.4404296875,26.6845703125,-15.9619140625
0.5666885,-50.8056640625,26.5380859375,-18.7939453125
0.6050285,-50.7568359375,26.0009765625,-22.5537109375
0.6170586,-51.2939453125,25.4150390625,-27.0458984375
0.657609,-52.1728515625,24.5849609375,-32.4169921875
0.6803639,-52.2216796875,24.5849609375,-38.2763671875
0.7213706,-52.3681640625,24.2431640625,-42.1826171875
0.7423903,-52.4169921875,23.3642578125,-47.4560546875
0.7834697,-52.6123046875,23.0224609375,-52.9248046875
0.8032374,-53.5888671875,23.0712890625,-57.5634765625
0.8437178,-54.1748046875,25.0732421875,-49.5068359375
0.8639538,-55.2001953125,26.8310546875,-21.3330078125
0.8939746,-56.3232421875,27.5146484375,6.4013671875
0.9342948,-56.8115234375,27.7587890625,23.5400390625
0.9503112,-58.0810546875,28.6865234375,30.3271484375
0.9900648,-59.0576171875,29.7119140625,29.1552734375
1.0109001,-60.0830078125,29.8583984375,23.8330078125
1.0417223,-60.8154296875,28.9306640625,14.7998046875
1.0832195,-60.8154296875,28.3935546875,4.3017578125
1.1019258,-57.5927734375,29.6630859375,-3.3154296875
1.1405677,-54.4677734375,29.5654296875,-8.0517578125
1.1635701,-52.3193359375,27.4658203125,-9.3212890625
1.206226,-51.3916015625,28.1494140625,-10.4931640625
1.2244448,-50.7568359375,27.4658203125,-12.7392578125
1.2560855,-50.4150390625,27.2705078125,-16.4501953125
1.296118,-50.8544921875,26.5869140625,-20.8447265625
1.3151225,-51.2939453125,25.8544921875,-25.9228515625
1.3431823,-51.7822265625,24.9755859375,-31.0498046875
1.3824082,-52.0751953125,23.9013671875,-36.0302734375
1.4054429,-52.5634765625,23.4130859375,-40.3271484375
1.434971,-52.1728515625,22.6318359375,-45.7470703125
1.4739398,-52.9052734375,21.8505859375,-49.8974609375
1.4941765,-53.9306640625,24.1943359375,-47.6513671875
1.5339518,-54.9560546875,26.5380859375,-23.2861328125
1.5569208,-55.8349609375,27.5634765625,4.7412109375
1.5957168,-57.0556640625,27.3681640625,22.1728515625
1.615737,-58.1787109375,28.2470703125,30.2783203125
1.6455109,-58.1298828125,29.7607421875,28.7158203125
1.686004,-60.2294921875,29.5654296875,23.7353515625
1.7041463,-61.1083984375,27.8564453125,14.5068359375
1.7370729,-61.4501953125,28.2958984375,3.1787109375
1.7743041,-59.7412109375,28.0517578125,-5.0244140625
1.7973444,-55.5908203125,27.5146484375,-8.5400390625
1.8263468,-53.7841796875,26.6357421875,-10.3955078125
1.8571176,-52.2216796875,26.1474609375,-11.1279296875
1.8853937,-52.2216796875,24.9755859375,-12.9833984375
1.9173294,-51.6845703125,24.6826171875,-16.2060546875
1.9465754,-52.0751953125,23.4619140625,-20.8447265625
1.9796834,-52.4658203125,23.5595703125,-25.9228515625
2.0090825,-52.9052734375,22.4365234375,-30.9033203125
2.0380911,-53.4912109375,21.4111328125,-35.8349609375
2.0682318,-53.1494140625,20.9228515625,-40.3759765625
2.0987977,-53.6865234375,20.2880859375,-45.3564453125
2.1305029,-54.1259765625,19.1650390625,-50.1904296875
2.1584784,-55.2001953125,20.9228515625,-50.3857421875
2.1875971,-55.6396484375,23.1689453125,-29.9267578125
2.2245229,-56.5673828125,24.7802734375,-2.1923828125
2.250087,-57.8369140625,25.3662109375,17.3388671875
2.27997,-58.2275390625,26.8310546875,26.3232421875
2.3109297,-59.2041015625,27.4169921875,26.2744140625
2.3396018,-61.0107421875,28.1005859375,20.8544921875
2.3675997,-62.0361328125,25.7568359375,11.1865234375
2.4006113,-62.4755859375,26.0009765625,-0.3857421875
2.4305978,-61.4501953125,27.8076171875,-9.4189453125
2.4576159,-58.6669921875,28.1982421875,-12.6416015625
2.4911444,-55.7373046875,27.8564453125,-13.7158203125
2.5196054,-54.0283203125,28.0029296875,-14.0087890625
2.5693022,-53.9306640625,28.0517578125,-15.7177734375
2.5883887,-53.1494140625,28.1982421875,-18.6474609375
2.608414,-53.3447265625,27.8076171875,-23.6279296875
2.6403311,-54.6630859375,27.4658203125,-28.3642578125
2.6704675,-55.4931640625,26.4404296875,-33.2958984375
2.7024362,-55.5419921875,26.5869140625,-37.8369140625
2.7323898,-55.0048828125,26.0009765625,-43.3544921875
2.7624883,-55.6396484375,25.6591796875,-48.4814453125
2.7910253,-55.9326171875,26.3427734375,-52.5341796875
2.8220074,-56.8115234375,28.9306640625,-43.5498046875
2.8514064,-57.6416015625,31.7138671875,-16.3037109375
2.8833851,-58.5205078125,33.0322265625,8.3056640625
2.9138507,-59.4482421875,34.1064453125,22.4169921875
2.9418322,-60.8154296875,35.9619140625,26.8603515625
2.9738036,-61.0595703125,35.6689453125,24.0771484375
3.0016428,-62.0849609375,35.8154296875,17.0458984375
3.0306159,-63.5498046875,34.1552734375,6.2548828125
3.0636804,-63.9404296875,34.6435546875,-5.1708984375
3.0927734,-62.1337890625,35.6689453125,-11.8115234375
3.1427468,-58.8134765625,34.6923828125,-14.1064453125
3.1642485,-55.9814453125,34.1064453125,-15.1318359375
3.1841887,-55.0048828125,33.3740234375,-16.0595703125
3.2148088,-54.6142578125,34.2529296875,-18.7451171875
3.2428513,-54.0283203125,33.4716796875,-22.1142578125
3.2741775,-54.7607421875,33.2275390625,-26.6064453125
3.3222743,-55.3955078125,33.0322265625,-32.0263671875
3.342489,-56.2744140625,32.2509765625,-36.8603515625
3.3654105,-56.4208984375,32.1044921875,-40.7666015625
3.3970203,-56.3720703125,31.3720703125,-46.1376953125
3.4244123,-56.6650390625,30.2978515625,-51.7529296875
3.4714262,-57.3486328125,31.8115234375,-54.0966796875
3.4921685,-58.1787109375,34.0087890625,-37.3486328125
3.5288005,-58.9111328125,36.0595703125,-7.6123046875
3.5508268,-60.1806640625,36.6943359375,16.1669921875
3.5916577,-61.0595703125,37.3291015625,28.2763671875
3.6123578,-61.7919921875,38.9404296875,31.4501953125
3.6533757,-62.7197265625,38.6962890625,27.9833984375
3.6744432,-63.6962890625,37.9150390625,20.9033203125
3.6955752,-64.7705078125,37.1826171875,9.9658203125
3.7275029,-65.0634765625,37.7197265625,-0.2392578125
3.755484,-62.2802734375,37.9150390625,-6.2939453125
3.8059201,-58.9599609375,36.8896484375,-8.8818359375
3.8169224,-56.8115234375,36.0107421875,-10.5419921875
3.8567487,-55.6884765625,35.2294921875,-12.6904296875
3.8793011,-54.4677734375,34.7412109375,-14.7412109375
3.9186311,-54.7119140625,35.0830078125,-19.3310546875
3.94165,-54.1259765625,34.5458984375,-23.6279296875
3.9822787,-55.2490234375,34.1064453125,-28.2177734375
4.0034307,-56.5185546875,34.0087890625,-32.8076171875
4.047087,-55.7373046875,33.3740234375,-37.2021484375
4.0587992,-55.7373046875,32.4462890625,-42.9150390625
4.0990113,-56.5185546875,31.6650390625,-47.4560546875
4.1190045,-57.0556640625,30.8837890625,-53.5107421875
4.1613404,-57.6904296875,32.5439453125,-54.2431640625
4.1805529,-59.0087890625,33.5693359375,-32.2705078125
4.2229146,-60.1318359375,34.6923828125,-2.6806640625
4.2444578,-60.0830078125,34.5947265625,19.7802734375
4.2855824,-61.7919921875,35.6201171875,30.4248046875
4.307885,-62.5244140625,36.3037109375,31.5966796875
4.328994,-62.9638671875,35.9619140625,27.4951171875
4.3628502,-64.0869140625,33.6181640625,19.8779296875
4.4033214,-65.2099609375,32.4462890625,9.0380859375
4.423645,-65.3564453125,32.7392578125,-0.7763671875
4.4496961,-62.0849609375,31.8603515625,-7.2705078125
4.4800375,-59.0087890625,30.9814453125,-10.0048828125
4.5190186,-56.3720703125,29.9072265625,-11.0302734375
4.5438827,-55.2490234375,28.2470703125,-12.3974609375
4.5846924,-55.2001953125,27.1240234375,-14.9365234375
4.6038866,-54.6142578125,26.4404296875,-19.5751953125
4.6399181,-54.5166015625,24.9755859375,-23.8232421875
4.6617987,-55.4931640625,24.3408203125,-29.2431640625
4.7023771,-56.7626953125,22.8759765625,-34.1748046875
4.7242828,-56.3232421875,21.8017578125,-39.1064453125
4.7664543,-56.7138671875,20.5810546875,-43.8916015625
4.7867548,-56.5185546875,19.9951171875,-49.6044921875
4.8267542,-56.8603515625,19.4580078125,-53.7548828125
4.8474469,-57.5927734375,22.0458984375,-46.9189453125
4.8873943,-58.6181640625,23.6083984375,-20.1611328125
4.9080531,-59.3994140625,25.1220703125,5.8642578125
4.9301558,-60.4736328125,25.6591796875,21.9775390625
4.9631636,-61.1083984375,26.7333984375,27.3974609375
4.9911486,-62.4755859375,27.7099609375,24.7119140625
5.0308473,-63.2568359375,25.5615234375,18.2666015625
5.0552594,-64.1357421875,23.7060546875,6.8896484375
5.0949134,-65.8447265625,24.2431640625,-3.4130859375
5.1150469,-64.2333984375,23.9013671875,-10.9326171875
5.1450191,-61.4013671875,22.9248046875,-12.9345703125
5.1733718,-58.5693359375,21.5576171875,-14.2529296875
5.2168101,-56.1279296875,21.5087890625,-15.8154296875
5.2358141,-55.4931640625,20.4833984375,-17.3779296875
5.2785549,-54.8583984375,20.0927734375,-21.4306640625
5.3005336,-55.4931640625,19.1162109375,-26.2646484375
5.3397552,-55.5908203125,19.2626953125,-31.0986328125
5.3620055,-57.0556640625,19.7021484375,-36.0791015625
5.4013336,-57.2509765625,19.0185546875,-40.5224609375
5.4225832,-57.0068359375,19.0673828125,-44.6728515625
5.4566914,-57.0068359375,18.5791015625,-50.2392578125
5.4769164,-57.7880859375,17.7001953125,-54.8291015625
5.5156543,-58.1787109375,20.1904296875,-54.1455078125
5.5360242,-58.9111328125,22.3876953125,-32.1728515625
5.5739299,-60.1806640625,24.1943359375,-4.7314453125
5.5940341,-60.9619140625,25.1708984375,14.4091796875
5.6349709,-61.7919921875,26.2451171875,23.2470703125
5.6553726,-62.7197265625,27.0751953125,22.6123046875
5.692331,-63.7451171875,27.9541015625,16.7529296875
5.717927,-64.5751953125,27.1240234375,6.4013671875
5.7589922,-66.1865234375,27.7587890625,-4.5361328125
5.7802711,-66.2841796875,28.1005859375,-13.5205078125
5.823466,-63.6962890625,27.9541015625,-17.8173828125
5.8350561,-59.8388671875,27.1728515625,-18.5498046875
5.8750066,-58.2763671875,26.8798828125,-19.6728515625
5.8972814,-57.0068359375,26.7333984375,-21.3818359375
5.9390063,-56.2744140625,27.1728515625,-25.3369140625
5.9604393,-56.0791015625,25.4638671875,-29.3896484375
6.0030038,-56.6162109375,25.5615234375,-34.1748046875
6.0209847,-57.8857421875,25.5615234375,-39.8388671875
6.0601006,-58.2763671875,24.5361328125,-44.4775390625
6.0813148,-57.8857421875,24.2919921875,-49.5068359375
6.1230326,-57.6904296875,23.2177734375,-54.5849609375
6.1391518,-58.4716796875,23.6083984375,-60.1513671875
6.1790874,-59.3505859375,25.0244140625,-58.2958984375
6.2008034,-60.1806640625,27.2216796875,-36.0791015625
6.2503688,-60.6689453125,29.1259765625,-7.4169921875
6.2708858,-61.9384765625,29.3701171875,12.6025390625
6.2923179,-63.7939453125,30.5419921875,20.7568359375
6.3308949,-63.9404296875,31.3720703125,20.4638671875
6.3517362,-65.0634765625,30.7861328125,14.4580078125
6.3901947,-66.2841796875,29.9560546875,6.1572265625
6.4117093,-67.2607421875,30.1513671875,-6.3916015625
6.45031,-67.4072265625,31.0791015625,-14.9365234375
6.4708985,-65.1123046875,30.4443359375,-20.2099609375
6.5161601,-61.2060546875,29.8583984375,-21.4306640625
6.5370328,-59.3505859375,29.3212890625,-22.1630859375
6.5631174,-57.9345703125,29.9560546875,-25.3857421875
6.6041229,-57.1044921875,30.2001953125,-28.4130859375
6.6221669,-57.1044921875,29.5166015625,-32.4169921875
6.6642945,-57.2998046875,29.1259765625,-37.6904296875
6.6783735,-57.7880859375,28.8330078125,-42.1337890625
6.7143253,-58.6181640625,28.3447265625,-47.0654296875
6.7429731,-58.8134765625,28.3447265625,-52.0947265625
6.7846662,-58.5693359375,27.8564453125,-57.3193359375
6.8053786,-59.1552734375,27.1728515625,-62.3974609375
6.8333326,-59.9365234375,28.3935546875,-63.7158203125
6.8766299,-60.8642578125,29.9072265625,-44.1845703125
6.8929039,-61.5966796875,32.7392578125,-14.8876953125
6.9288708,-62.5732421875,33.3740234375,8.7451171875
6.9599049,-63.8916015625,34.3505859375,18.8037109375
6.9843029,-64.7705078125,35.6689453125,21.1962890625
7.0262822,-65.3564453125,35.4736328125,16.4599609375
7.044915,-66.5283203125,35.1318359375,9.1357421875
7.0842433,-68.4326171875,34.0087890625,-3.1689453125
7.1040469,-69.0185546875,34.7900390625,-13.5205078125
7.1434228,-67.3095703125,35.1806640625,-19.9169921875
7.1652668,-63.3544921875,34.1552734375,-23.0908203125
7.1943138,-60.6689453125,33.4228515625,-23.7255859375
7.234956,-59.2529296875,33.2275390625,-25.3369140625
7.2580705,-58.0322265625,33.7158203125,-27.7783203125
7.2870794,-58.2763671875,32.6416015625,-32.2216796875
7.3170988,-57.8369140625,32.4951171875,-36.7138671875
7.3441158,-58.2763671875,31.1767578125,-42.3779296875
7.3790452,-59.4970703125,30.2001953125,-46.8701171875
7.4057177,-59.6923828125,29.3701171875,-51.4111328125
7.4377083,-59.8876953125,29.1748046875,-56.4892578125
7.4651565,-59.8876953125,27.8076171875,-61.1279296875
7.4947431,-60.7666015625,27.0263671875,-67.1826171875
7.5364206,-61.3525390625,28.0517578125,-70.7470703125
7.5572764,-62.1826171875,30.9326171875,-56.9287109375
7.5861918,-63.3056640625,33.3251953125,-26.3134765625
7.6191963,-64.4287109375,34.0576171875,0.8837890625
7.6481767,-65.6005859375,34.7900390625,16.1669921875
7.6761634,-66.5283203125,36.6455078125,20.3662109375
7.7092298,-67.0654296875,36.8896484375,17.9736328125
7.7380367,-68.4814453125,35.6201171875,10.5517578125
7.7713228,-69.7509765625,34.7900390625,-0.5322265625
7.7977334,-70.1904296875,35.5712890625,-11.7626953125
7.8287423,-70.2880859375,35.5224609375,-18.5498046875
7.86,-67.2607421875,33.9599609375,-22.0166015625
7.8878604,-63.6474609375,33.1787109375,-23.3349609375
7.9180062,-61.0107421875,32.6904296875,-24.1162109375
7.9500049,-60.4248046875,31.9091796875,-26.0205078125
7.980859,-60.0830078125,30.6396484375,-29.7802734375
8.0097331,-60.2294921875,30.2001953125,-34.4189453125
8.0408221,-60.0830078125,29.2236328125,-38.8134765625
8.0681487,-61.4013671875,28.4423828125,-43.5986328125
8.0977993,-62.0849609375,27.4658203125,-48.7744140625
8.130915,-61.6943359375,26.6357421875,-53.3642578125
8.1586197,-61.4990234375,25.5615234375,-58.3447265625
8.1911432,-62.2314453125,24.4384765625,-63.2763671875
8.2211943,-62.2802734375,27.2705078125,-57.6611328125
8.2487037,-63.5009765625,29.2236328125,-31.3916015625
8.2807216,-64.6240234375,30.7373046875,-3.6572265625
8.3096098,-65.8447265625,31.3232421875,14.3603515625
8.3453519,-66.0400390625,32.8369140625,19.5849609375
8.3719446,-67.6025390625,33.5205078125,17.8271484375
8.4023184,-68.2373046875,31.7626953125,10.3076171875
8.429026,-69.7998046875,30.7861328125,-2.0947265625
8.4611356,-70.4345703125,31.2255859375,-14.7900390625
8.4905988,-71.2158203125,31.0302734375,-21.8701171875
8.5236482,-69.7021484375,30.3466796875,-23.9697265625
8.551753,-65.6494140625,29.8095703125,-24.3603515625
8.5816133,-63.6474609375,30.2978515625,-24.3115234375
8.6266351,-62.1826171875,30.1025390625,-26.6064453125
8.6485923,-62.1826171875,30.5908203125,-30.1708984375
8.6877916,-62.3291015625,30.5419921875,-34.8095703125
8.7107876,-62.3779296875,30.1513671875,-39.6435546875
8.7339776,-63.2080078125,30.1025390625,-44.6728515625
8.7606128,-64.0380859375,30.2490234375,-49.2626953125
8.8071355,-64.0380859375,28.7353515625,-53.6572265625
8.828727,-63.4521484375,28.3935546875,-59.2236328125
8.8707001,-63.6474609375,29.9560546875,-61.1279296875
8.8838679,-64.5751953125,32.7880859375,-43.6962890625
8.912285,-65.5029296875,35.6689453125,-14.6923828125
8.9464065,-66.3818359375,36.1083984375,8.7451171875
8.9747664,-66.8701171875,38.1103515625,20.2197265625
9.0187835,-68.1884765625,39.3310546875,21.6357421875
9.0404727,-68.3837890625,39.1845703125,16.1181640625
9.0816861,-69.5068359375,38.6474609375,6.1083984375
9.1026981,-70.9716796875,38.2080078125,-7.4658203125
9.1452413,-71.1669921875,39.4775390625,-18.3544921875
9.1657463,-71.4599609375,39.4775390625,-23.8720703125
9.1871999,-69.0673828125,38.9404296875,-24.2138671875
9.2305205,-65.6494140625,37.6708984375,-25.0927734375
9.2627569,-63.6962890625,37.6708984375,-25.9228515625
9.2772443,-62.9638671875,37.7685546875,-29.0478515625
9.3177435,-62.3779296875,37.3291015625,-33.6865234375
9.3381943,-62.3291015625,36.5478515625,-38.6181640625
9.3804353,-63.7451171875,36.2060546875,-43.0615234375
9.4010112,-64.3798828125,36.4013671875,-48.4814453125
9.4430735,-64.3798828125,35.9130859375,-52.6806640625
9.4639143,-64.8681640625,35.2783203125,-57.6123046875
9.4872275,-64.5751953125,36.1572265625,-62.5439453125
9.5179828,-65.0146484375,38.4521484375,-54.3408203125
9.5639306,-65.6005859375,40.5029296875,-24.0673828125
9.5853412,-66.7724609375,42.7001953125,4.6435546875
9.6248427,-67.5537109375,43.0419921875,22.0751953125
9.6451928,-68.4814453125,44.8974609375,29.0087890625
9.6652191,-69.9462890625,44.7509765625,26.6162109375
9.6970564,-70.4345703125,44.4580078125,18.8525390625
9.7416949,-71.5576171875,42.7490234375,7.8173828125
9.7607997,-72.5830078125,43.2861328125,-5.2685546875
9.7998527,-73.3642578125,44.3115234375,-13.6181640625
9.8203875,-71.1181640625,43.1884765625,-17.0361328125
9.8614698,-67.8466796875,41.6748046875,-18.2080078125
9.882748,-64.7705078125,40.9423828125,-19.2822265625
9.9254041,-63.2568359375,40.9423828125,-21.3330078125
9.9448082,-62.2314453125,41.1376953125,-24.7021484375
9.9858478,-61.8896484375,40.4541015625,-29.9267578125
10.0062843,-62.0849609375,40.2099609375,-34.5654296875
10.0313681,-62.2802734375,40.3076171875,-39.8876953125
10.0604122,-63.6474609375,40.1611328125,-43.9404296875
10.1030939,-63.3056640625,38.9892578125,-49.2138671875
10.1261655,-63.4033203125,38.6962890625,-54.1455078125
10.1670816,-63.8916015625,38.9892578125,-58.5888671875
10.1885519,-63.8916015625,40.2099609375,-50.9716796875
10.2111958,-64.5751953125,42.9931640625,-20.5029296875
10.2424425,-65.5517578125,44.5068359375,10.5029296875
10.2816106,-66.1865234375,45.0439453125,29.3994140625
10.3000391,-67.2119140625,46.4111328125,36.1865234375
10.3414839,-68.6279296875,47.0458984375,34.3310546875
10.3604468,-68.9208984375,46.3134765625,27.2021484375
10.3993043,-70.1904296875,45.7275390625,16.7041015625
10.4194712,-71.1669921875,45.2392578125,4.6923828125
10.4609518,-71.8994140625,46.0693359375,-4.1943359375
10.4816929,-70.7275390625,45.4345703125,-9.0283203125
10.5232654,-67.3095703125,44.3603515625,-10.4931640625
10.5438949,-64.1845703125,43.8720703125,-11.4697265625
10.5821216,-61.7431640625,42.6025390625,-13.7646484375
10.6049065,-60.7666015625,42.2607421875,-17.0361328125
10.6448988,-59.8876953125,41.5283203125,-21.3818359375
10.6664565,-59.9365234375,40.2587890625,-27.1435546875
10.7068409,-59.9853515625,38.9892578125,-31.8798828125
10.7272034,-60.9130859375,38.2568359375,-36.7626953125
10.7687508,-61.4990234375,36.9873046875,-41.2060546875
10.7874811,-60.7177734375,36.3037109375,-46.7236328125
10.8272891,-61.0107421875,34.8876953125,-52.1435546875
10.8473427,-61.3037109375,34.2529296875,-57.4658203125
10.8880095,-62.1337890625,37.0849609375,-52.0947265625
10.9091389,-63.5498046875,38.9892578125,-21.1376953125
10.9501567,-63.8427734375,39.3798828125,11.2841796875
10.9702421,-65.2099609375,39.5263671875,31.1083984375
11.0072409,-65.4541015625,39.4775390625,39.2138671875
11.0272628,-66.8212890625,40.4541015625,38.9208984375
11.0693994,-67.9931640625,39.9658203125,32.0849609375
11.0891023,-68.6767578125,38.1591796875,21.5869140625
11.1261096,-69.7998046875,38.3056640625,8.7451171875
11.1461292,-70.5322265625,37.5244140625,-0.4345703125
11.1868673,-70.4833984375,36.9384765625,-4.7314453125
11.2085784,-67.2607421875,35.9130859375,-5.6103515625
11.2475564,-62.7197265625,35.0341796875,-6.6357421875
11.2704806,-61.2060546875,34.2529296875,-7.8076171875
11.3101188,-59.8876953125,33.4228515625,-11.2255859375
11.3302831,-59.3017578125,32.1533203125,-15.5712890625
11.3703022,-59.2041015625,31.2744140625,-20.3076171875
11.3930465,-59.2529296875,30.1025390625,-25.1416015625
11.4361124,-60.5712890625,29.2724609375,-30.0244140625
11.4481727,-61.0595703125,28.2958984375,-34.3701171875
11.4865312,-60.8642578125,26.6845703125,-39.5458984375
11.5069659,-60.5224609375,25.6591796875,-44.6240234375
11.5458966,-61.2548828125,25.8056640625,-48.8232421875
11.5682773,-61.2548828125,27.9052734375,-39.4970703125
11.618887,-62.5732421875,29.3212890625,-9.2724609375
11.6406148,-63.2080078125,30.5419921875,19.9755859375
11.6576209,-64.4287109375,30.5908203125,36.4794921875
11.6976806,-65.3564453125,31.3232421875,40.5810546875
11.7169447,-65.9423828125,32.3486328125,37.6025390625
11.7565207,-67.1630859375,30.2490234375,28.8134765625
11.7777112,-68.0908203125,29.0283203125,15.4345703125
11.8234285,-69.9462890625,29.3212890625,3.1298828125
11.8441354,-69.6533203125,29.2724609375,-3.4130859375
11.8692917,-69.8974609375,28.8818359375,-5.5126953125
11.9121578,-66.4306640625,28.7353515625,-4.9267578125
11.9306389,-62.7197265625,26.1474609375,-5.1220703125
11.9724053,-61.2060546875,26.3427734375,-7.2705078125
11.9944819,-60.6689453125,25.6591796875,-11.9091796875
12.0208713,-59.8876953125,24.6337890625,-16.6455078125
12.0621522,-60.1806640625,24.1943359375,-21.7236328125
12.0817385,-61.0595703125,23.7548828125,-25.7275390625
12.1254267,-61.2548828125,23.9990234375,-30.6103515625
12.1404129,-61.7919921875,23.7060546875,-35.7373046875
12.1804353,-61.4501953125,23.0224609375,-40.2783203125
12.2033245,-61.4990234375,23.9990234375,-45.0146484375
12.2304119,-61.3525390625,26.0009765625,-39.3017578125
12.271332,-62.8662109375,29.0283203125,-11.1279296875
12.2895794,-63.0126953125,30.1025390625,18.9013671875
12.3325879,-64.1845703125,30.7373046875,36.2353515625
12.3533168,-65.0634765625,31.8603515625,42.4853515625
12.3907606,-65.6982421875,32.4462890625,39.9951171875
12.4112292,-66.6259765625,31.1767578125,32.3779296875
12.4499068,-67.7001953125,29.8095703125,20.4150390625
12.4713693,-68.1884765625,30.6884765625,6.1572265625
12.5113199,-69.7998046875,32.1044921875,-0.7763671875
12.5316119,-70.0927734375,31.7138671875,-3.6572265625
12.5715091,-67.5048828125,31.1279296875,-2.9248046875
12.591816,-64.3798828125,30.6884765625,-4.6826171875
12.6316837,-61.1572265625,31.6162109375,-6.5380859375
12.6531283,-60.7177734375,30.2001953125,-9.9072265625
12.6906493,-59.7900390625,30.0537109375,-15.2294921875
12.7124943,-59.8388671875,29.9560546875,-20.6982421875
12.7560285,-60.3759765625,29.6142578125,-24.9951171875
12.7754732,-61.0107421875,29.9072265625,-30.9521484375
12.8051908,-61.1572265625,29.5654296875,-36.1767578125
12.8371945,-61.5478515625,29.5166015625,-41.1572265625
12.8639752,-60.7666015625,30.2490234375,-45.6982421875
12.8920825,-61.6943359375,32.3486328125,-33.4423828125
12.9338513,-62.0361328125,34.4482421875,-0.7763671875
12.9543436,-63.3056640625,34.5947265625,27.1533203125
12.9878408,-63.9892578125,35.1806640625,43.6083984375
13.0154382,-65.4541015625,36.1572265625,48.1494140625
13.045429,-66.0400390625,37.0849609375,44.4873046875
13.074027,-66.2841796875,36.5966796875,36.2353515625
13.1162665,-68.1884765625,35.5224609375,24.4189453125
13.1332372,-69.1650390625,35.9130859375,11.3818359375
13.167201,-69.5556640625,36.5478515625,4.1064453125
13.1961836,-69.7998046875,35.6689453125,0.6884765625
13.2252194,-66.6748046875,34.7412109375,0.4443359375
13.2587484,-62.8173828125,34.2529296875,-0.6298828125
13.2847096,-61.0107421875,34.1064453125,-3.3642578125
13.3235893,-59.5947265625,33.7158203125,-7.5634765625
13.3466615,-58.9111328125,33.7158203125,-13.2275390625
13.3762606,-58.9599609375,32.5927734375,-18.0126953125
13.4162953,-59.1064453125,32.9345703125,-23.6279296875
13.4554822,-60.3271484375,33.3251953125,-27.7294921875
13.4758108,-60.3271484375,32.3974609375,-32.9052734375
13.4976352,-60.4736328125,31.4697265625,-37.3974609375
13.5269995,-61.1572265625,31.4208984375,-43.3056640625
13.5673609,-61.2548828125,31.5673828125,-48.6279296875
13.5883757,-61.4501953125,33.4228515625,-43.9404296875
13.6174911,-62.2802734375,36.5478515625,-12.0068359375
13.64748,-63.6962890625,37.6220703125,21.5380859375
13.6804962,-64.8681640625,38.6474609375,43.2177734375
13.7092226,-65.3564453125,40.3564453125,52.2021484375
13.7413977,-65.9912109375,40.7470703125,51.6162109375
13.7702106,-67.6513671875,41.1865234375,45.3662109375
13.800179,-68.2373046875,40.3564453125,35.4541015625
13.8293833,-69.4580078125,40.9423828125,22.5634765625
13.8613884,-70.4833984375,41.4794921875,12.7978515625
13.8873653,-71.2646484375,40.9912109375,7.7197265625
13.9199681,-69.8486328125,40.2587890625,5.8642578125
13.9498192,-65.3076171875,39.8681640625,4.6923828125
13.9797996,-62.2802734375,39.5751953125,2.7392578125
14.0108039,-60.4248046875,39.6728515625,-0.0439453125
14.0417925,-59.6923828125,38.5498046875,-5.2685546875
14.0739083,-59.0576171875,38.1591796875,-10.0537109375
14.1172666,-58.9111328125,37.8173828125,-15.5224609375
14.1369339,-59.3017578125,37.8173828125,-20.9912109375
14.1789291,-59.7900390625,36.8896484375,-26.1669921875
14.1990139,-60.4248046875,35.7666015625,-31.6357421875
14.2190032,-60.1806640625,34.8388671875,-36.9091796875
14.2525147,-60.1318359375,34.3994140625,-42.8173828125
14.2977465,-60.8642578125,36.8408203125,-41.5478515625
14.3177649,-61.4013671875,39.3798828125,-13.7158203125
14.3595829,-62.4755859375,39.5263671875,19.5849609375
14.3789645,-63.2568359375,39.9658203125,42.2900390625
14.4000081,-64.2822265625,40.4541015625,52.2021484375
14.4340123,-64.9658203125,41.3330078125,51.6162109375
14.4628249,-65.9423828125,40.9423828125,46.4404296875
14.4931692,-67.3583984375,39.7705078125,34.8681640625
14.5232552,-68.4326171875,39.0869140625,21.2451171875
14.5665322,-69.0185546875,39.6728515625,10.9423828125
14.5863971,-70.4345703125,38.4033203125,6.5966796875
14.6410336,-69.2626953125,37.5732421875,5.4248046875
14.6445231,-66.0400390625,36.8896484375,4.5458984375
14.6915831,-62.6708984375,36.4013671875,2.9345703125
14.7138713,-60.7666015625,35.1318359375,-0.5810546875
14.7529332,-60.1806640625,34.2529296875,-5.4638671875
14.774502,-59.4482421875,33.2763671875,-11.5185546875
14.7927644,-58.9599609375,32.4951171875,-17.2314453125
14.8378892,-59.4970703125,31.6650390625,-22.3095703125
14.8592987,-61.2548828125,31.0791015625,-26.8017578125
14.9010863,-61.4501953125,30.1025390625,-31.3916015625
14.9240362,-60.9130859375,29.2724609375,-36.6162109375
14.945656,-61.3525390625,27.6123046875,-42.2314453125
14.9744263,-61.4501953125,27.0263671875,-48.2373046875
15.0184169,-61.5966796875,28.1005859375,-50.0439453125
15.0381895,-63.4033203125,30.2490234375,-25.7275390625
15.0750264,-64.4775390625,32.0068359375,8.6474609375
15.0965627,-65.4052734375,33.5693359375,34.4287109375
15.1372286,-66.5283203125,34.3505859375,45.4150390625
15.1570659,-67.0654296875,34.0576171875,45.8056640625
15.196154,-68.0908203125,33.1298828125,39.9951171875
15.2161561,-69.1162109375,32.8369140625,29.6435546875
15.2708655,-70.3369140625,33.2763671875,15.6298828125
15.2917309,-70.9716796875,33.3251953125,5.1318359375
15.3118962,-72.0947265625,33.0810546875,0.4443359375
15.353825,-72.9736328125,31.9580078125,-0.4345703125
15.3731681,-69.3115234375,32.0068359375,-0.3857421875
15.4116017,-65.6494140625,30.7861328125,-1.6064453125
15.4308137,-63.9404296875,31.0791015625,-5.2685546875
15.4557993,-62.9638671875,30.5419921875,-10.3466796875
15.4901307,-62.5732421875,29.1259765625,-16.0595703125
15.517313,-62.4267578125,28.5888671875,-20.9912109375
15.5579049,-62.6708984375,28.3447265625,-26.2158203125
15.5796657,-63.4033203125,27.6611328125,-30.3173828125
15.6203642,-64.6240234375,26.4892578125,-35.2978515625
15.6416815,-64.0869140625,24.9755859375,-40.5712890625
15.6758713,-64.2333984375,24.4384765625,-45.7958984375
15.7138468,-64.0380859375,26.0986328125,-49.3115234375
15.7352388,-65.2099609375,28.9794921875,-30.7568359375
15.7766072,-65.6005859375,31.3232421875,3.2275390625
15.7980906,-66.8212890625,31.8603515625,29.3994140625
15.8400613,-67.8466796875,33.6181640625,41.1669921875
15.8510515,-68.7255859375,35.0830078125,43.0224609375
15.8940413,-69.4091796875,35.3759765625,37.6025390625
15.9137695,-70.5810546875,34.1064453125,28.0810546875
15.9507251,-71.4599609375,34.2529296875,13.9697265625
15.9725782,-72.5341796875,36.0107421875,2.7880859375
16.0140975,-73.6083984375,36.7919921875,-3.0224609375
16.0370848,-74.1943359375,35.9619140625,-3.4619140625
16.0787457,-71.8994140625,35.8154296875,-4.0966796875
16.090723,-67.7978515625,36.1572265625,-5.3173828125
16.1311785,-65.3564453125,36.0595703125,-8.2470703125
16.1528347,-64.3310546875,35.5712890625,-12.7880859375
16.1938637,-64.2822265625,35.1318359375,-18.9404296875
16.214585,-63.6474609375,34.4482421875,-24.2626953125
16.2565847,-64.3310546875,33.5693359375,-28.7548828125
16.2778654,-65.4541015625,33.6181640625,-34.1748046875
16.2998924,-65.6005859375,32.8857421875,-39.3505859375
16.3442116,-65.6494140625,32.3974609375,-44.7216796875
16.3649425,-65.3564453125,32.6904296875,-49.9951171875
16.4061976,-65.2587890625,35.2783203125,-43.5986328125
16.4262256,-65.8935546875,37.4755859375,-12.6416015625
16.4664481,-66.7236328125,38.4033203125,18.6083984375
16.4886973,-67.8466796875,39.6728515625,37.8955078125
16.5277232,-68.5791015625,41.2353515625,44.8291015625
16.5503961,-69.2138671875,41.6748046875,43.2177734375
16.5914481,-70.6787109375,40.3564453125,35.0146484375
16.603467,-71.4111328125,40.1123046875,24.3701171875
16.6430452,-72.3388671875,40.6982421875,10.7958984375
16.6638186,-73.2177734375,40.5029296875,1.2255859375
16.706117,-74.4384765625,40.2587890625,-2.7783203125
16.7266531,-73.7548828125,39.9169921875,-3.8037109375
16.7696228,-70.9228515625,38.9892578125,-4.6826171875
16.7898061,-67.4072265625,39.6240234375,-6.7822265625
16.8329797,-64.8681640625,39.4775390625,-10.3466796875
16.8445519,-64.3798828125,39.0380859375,-15.7177734375
16.8863678,-63.9404296875,38.0615234375,-20.9423828125
16.9075845,-63.5498046875,37.7197265625,-26.8994140625
16.9483192,-64.0380859375,37.0361328125,-31.9287109375
16.970002,-64.7216796875,36.4501953125,-36.8603515625
17.0109379,-64.9658203125,36.0595703125,-42.3779296875
17.0240761,-64.9169921875,35.3271484375,-48.3837890625
17.0709454,-65.3564453125,35.6201171875,-53.1201171875
17.0869433,-65.2587890625,36.9873046875,-51.8505859375
17.1262322,-66.2353515625,39.3310546875,-22.1630859375
17.1474005,-66.9189453125,41.1865234375,12.8466796875
17.1901495,-67.4072265625,41.9677734375,35.4541015625
17.2101957,-68.5791015625,43.1884765625,45.7568359375
17.2509439,-69.2138671875,42.4560546875,46.0009765625
17.2658972,-70.3369140625,43.4326171875,40.3369140625
17.3104927,-71.6064453125,42.4560546875,30.8642578125
17.3315982,-72.4853515625,41.7724609375,17.5830078125
17.3696453,-73.8525390625,42.9443359375,6.2060546875
17.3889043,-74.6826171875,42.4072265625,0.4443359375
17.4259022,-75.4150390625,41.0888671875,-2.6318359375
17.4598473,-72.3876953125,40.1611328125,-2.7783203125
17.4802465,-68.8232421875,39.7216796875,-4.1455078125
17.520946,-65.9912109375,38.9892578125,-7.4169921875
17.5412109,-64.2822265625,39.1357421875,-12.2998046875
17.5832815,-63.8916015625,38.1103515625,-17.4755859375
17.5981564,-63.3056640625,37.4755859375,-23.4326171875
17.640616,-63.5009765625,37.2314453125,-29.3408203125
17.6616061,-64.1357421875,35.6201171875,-35.0537109375
17.6886215,-64.5263671875,34.7900390625,-40.2294921875
17.7312246,-65.1123046875,33.0322265625,-46.0400390625
17.7522688,-64.8193359375,32.1533203125,-51.2646484375
17.7951043,-64.8681640625,32.0556640625,-57.4169921875
17.8112361,-66.0888671875,34.6923828125,-53.4130859375
17.8512992,-66.5283203125,36.6455078125,-20.1611328125
17.8714078,-67.2119140625,37.3779296875,14.2626953125
17.9123492,-68.3349609375,37.9638671875,35.5029296875
17.9313864,-69.3115234375,39.8193359375,43.7548828125
17.9744027,-70.2392578125,40.6494140625,42.6318359375
17.9903698,-70.9716796875,40.7470703125,36.2841796875
18.0213782,-72.2412109375,39.2333984375,25.0537109375
18.0595053,-72.7294921875,39.0869140625,11.5283203125
18.0801355,-74.0966796875,39.4775390625,1.4208984375
18.1091432,-75.7080078125,39.8681640625,-2.8759765625
18.1421396,-76.3916015625,37.8662109375,-4.6337890625
18.1842043,-72.9248046875,37.1826171875,-5.2685546875
18.1999646,-68.5791015625,36.4013671875,-7.0263671875
18.2341535,-66.1865234375,35.4736328125,-10.5419921875
18.2643988,-64.9169921875,34.2041015625,-15.0341796875
18.2969094,-64.3310546875,32.8857421875,-21.1376953125
18.3236389,-64.0380859375,32.0068359375,-26.2646484375
18.3541881,-64.3310546875,30.6884765625,-31.9775390625
18.3862927,-64.9658203125,29.4677734375,-37.2021484375
18.4132754,-65.9912109375,28.7353515625,-42.7685546875
18.4505444,-65.9912109375,28.2470703125,-47.4560546875
18.4752381,-66.1865234375,27.5146484375,-54.0478515625
18.5036636,-66.0400390625,29.6630859375,-50.4833984375
18.5376836,-66.6259765625,31.4208984375,-21.9677734375
18.5646631,-66.9189453125,32.2021484375,9.7216796875
18.605078,-68.2373046875,32.7880859375,29.8876953125
18.624127,-69.4091796875,33.7158203125,36.3818359375
18.6557233,-69.9951171875,33.7646484375,35.1123046875
18.6851358,-70.7763671875,32.9833984375,26.8603515625
18.7183723,-71.9482421875,31.8115234375,15.2392578125
18.7461507,-72.1435546875,31.8115234375,0.9814453125
18.7721749,-73.7548828125,33.2763671875,-8.2958984375
18.8072051,-74.5849609375,31.9580078125,-11.1279296875
18.8372449,-75.4638671875,31.3232421875,-11.0791015625
18.8688854,-73.9990234375,30.6884765625,-11.8115234375
18.8963525,-69.4580078125,30.2001953125,-14.2041015625
18.9253629,-67.2119140625,29.4189453125,-17.3779296875
18.9533593,-65.9912109375,29.9072265625,-22.8955078125
18.9885072,-65.3564453125,29.6142578125,-28.4130859375
19.0179047,-65.1123046875,28.9794921875,-34.0283203125
19.0488462,-66.0888671875,28.2958984375,-39.3505859375
19.0768545,-66.6748046875,27.8564453125,-43.9404296875
19.1041956,-66.9677734375,28.0517578125,-49.2626953125
19.1401661,-67.6025390625,27.1240234375,-54.8291015625
19.1667273,-67.1630859375,29.1748046875,-59.3212890625
19.1977357,-67.2607421875,30.9814453125,-47.2119140625
19.2462025,-67.8955078125,34.0087890625,-14.1552734375
19.2685624,-68.7255859375,34.1552734375,14.2626953125
19.2893938,-69.7509765625,35.6689453125,29.3017578125
19.3188516,-70.7763671875,37.8173828125,32.9638671875
19.3494064,-71.6064453125,37.6708984375,28.6181640625
19.3809631,-72.0458984375,36.5966796875,19.2919921875
19.406927,-73.2666015625,37.2802734375,5.9619140625
19.437416,-74.4384765625,37.7685546875,-7.2216796875
19.4688797,-75.5615234375,37.5732421875,-14.3505859375
19.5005819,-76.6357421875,37.4267578125,-15.7666015625
19.5289151,-76.7822265625,36.8408203125,-16.5478515625
19.5599301,-74.4873046875,37.8173828125,-17.3291015625
19.5893446,-70.0439453125,38.3544921875,-19.7705078125
19.622886,-68.0419921875,36.9384765625,-24.9951171875
19.650961,-66.8212890625,36.5966796875,-30.9521484375
19.6806276,-66.4794921875,35.2294921875,-35.8349609375
19.7092501,-66.9677734375,35.1806640625,-41.6943359375
19.7396149,-67.0654296875,34.9365234375,-46.5283203125
19.7720735,-67.8466796875,34.1552734375,-51.6064453125
19.8000517,-68.1884765625,33.9599609375,-57.2705078125
19.8297588,-68.3349609375,34.3505859375,-62.7392578125
19.8617257,-68.8232421875,35.7177734375,-61.9091796875
19.8927586,-68.9208984375,38.7939453125,-32.4658203125
19.9197096,-69.4091796875,40.3076171875,1.3232421875
19.9558248,-70.6298828125,40.7470703125,23.8818359375
20.0004174,-71.3134765625,42.5537109375,32.7197265625
20.0210743,-72.4365234375,42.7001953125,32.7197265625
20.043117,-72.8759765625,42.7978515625,25.9326171875
20.0710746,-74.1455078125,41.8212890625,15.9228515625
20.0998044,-74.5849609375,42.2607421875,1.7138671875
20.1499197,-76.0986328125,41.9189453125,-8.9794921875
20.1617465,-76.8310546875,42.2607421875,-14.1064453125
20.1917046,-77.5634765625,41.4306640625,-15.5712890625
20.2240255,-76.8798828125,40.8447265625,-14.9365234375
20.2534527,-73.0712890625,41.0888671875,-17.1337890625
20.2975812,-69.2626953125,41.1865234375,-20.2587890625
20.3190147,-67.8955078125,41.1376953125,-24.8974609375
20.3661613,-66.5283203125,40.4052734375,-30.6103515625
20.3861911,-66.9677734375,40.0634765625,-36.5673828125
20.4042012,-66.3330078125,39.1357421875,-42.0849609375
20.450457,-67.4072265625,37.5244140625,-47.2119140625
20.4696741,-67.9443359375,36.1083984375,-52.7783203125
20.5072053,-68.1396484375,34.8388671875,-58.8818359375
20.529654,-68.3349609375,36.2060546875,-63.0322265625
20.5846624,-68.3837890625,38.2080078125,-50.5810546875
20.5881455,-67.9931640625,40.2587890625,-16.0595703125
20.6113708,-69.4091796875,40.1123046875,14.3603515625
20.6600666,-69.9462890625,41.6259765625,31.5478515625
20.6819394,-71.2646484375,42.5537109375,35.6982421875
20.7211912,-71.9482421875,43.1396484375,32.8173828125
20.7429584,-73.2666015625,41.1376953125,25.0048828125
20.7649539,-73.9990234375,39.7216796875,12.9931640625
20.7974022,-74.7802734375,39.7705078125,-0.7763671875
20.8250255,-75.6103515625,39.1845703125,-9.5166015625
20.8716789,-77.1240234375,38.7451171875,-12.2021484375
20.8922435,-77.6123046875,37.0849609375,-12.8857421875
20.9317858,-76.0009765625,36.7919921875,-12.9345703125
20.9543192,-71.6064453125,35.8642578125,-15.1806640625
20.9955874,-68.5791015625,35.0341796875,-18.8916015625
21.0266808,-67.2119140625,34.0576171875,-24.2626953125
21.0382942,-66.0888671875,33.7158203125,-29.3896484375
21.0824598,-66.0400390625,33.2763671875,-35.1513671875
21.105391,-66.3330078125,31.1279296875,-39.9853515625
21.1273509,-67.1630859375,31.1767578125,-45.1611328125
21.1575408,-67.5537109375,29.5654296875,-50.0927734375
21.204627,-68.1884765625,29.5654296875,-55.4638671875
21.2196911,-67.8955078125,31.3720703125,-56.0498046875
21.258964,-68.4814453125,32.9345703125,-30.5615234375
21.280764,-69.2138671875,34.9853515625,2.5439453125
21.3205477,-69.1162109375,35.5224609375,25.1513671875
21.3413529,-70.7763671875,35.7177734375,34.2333984375
21.3835216,-71.1669921875,35.8154296875,34.8193359375
21.4037327,-71.6552734375,34.8876953125,27.0556640625
21.4442146,-72.8759765625,33.6669921875,16.7529296875
21.4651179,-73.5107421875,34.3505859375,2.3486328125
21.5047396,-74.7802734375,34.3994140625,-8.0517578125
21.5246985,-75.7568359375,34.0576171875,-12.5439453125
21.5670879,-76.4404296875,33.3740234375,-11.9091796875
21.5870866,-77.2216796875,32.6904296875,-11.2744140625
21.6269253,-73.6572265625,32.8369140625,-12.8369140625
21.6399828,-69.5556640625,32.2021484375,-16.2060546875
21.6869895,-68.0419921875,30.6884765625,-21.5283203125
21.7059934,-67.1630859375,29.7607421875,-26.7529296875
21.7485985,-66.9677734375,29.1259765625,-32.3193359375
21.7687813,-66.9189453125,28.4912109375,-36.9580078125
21.8078192,-67.7001953125,27.3681640625,-42.3779296875
21.8298767,-68.3837890625,26.7822265625,-47.1142578125
21.8504812,-68.1396484375,27.5634765625,-52.5341796875
21.8836714,-68.9697265625,30.2490234375,-50.3857421875
21.9092099,-68.3349609375,32.4951171875,-23.4326171875
21.9607784,-68.7744140625,33.3740234375,8.1103515625
21.9723281,-69.3603515625,34.8876953125,29.3017578125
22.013236,-70.0927734375,36.0595703125,37.3095703125
22.0327998,-71.1669921875,36.6943359375,35.9912109375
22.0735466,-71.6064453125,35.8154296875,29.3017578125
22.092834,-72.8271484375,35.2783203125,17.5830078125
22.1369675,-73.4619140625,37.5732421875,4.0087890625
22.1569755,-74.9755859375,38.0126953125,-6.3916015625
22.2015027,-75.6103515625,36.7919921875,-9.5654296875
22.2120142,-76.4892578125,35.4248046875,-9.3212890625
22.2596727,-76.6845703125,36.0107421875,-9.4189453125
22.2787892,-73.3642578125,36.4501953125,-11.9580078125
22.3186744,-69.7021484375,36.4990234375,-14.7412109375
22.331344,-67.6025390625,36.1572265625,-19.8681640625
22.37997,-66.8212890625,36.0107421875,-25.4833984375
22.3919933,-66.1865234375,36.4501953125,-30.7080078125
22.4340563,-65.9912109375,36.7431640625,-36.0791015625
22.4554551,-66.6259765625,36.1572265625,-40.6201171875
22.4973972,-68.4326171875,35.9130859375,-46.2353515625
22.5190573,-67.6025390625,37.1826171875,-49.5556640625
22.5596572,-67.8466796875,39.7216796875,-33.5400390625
22.578739,-67.9443359375,42.4072265625,-0.9228515625
22.6155156,-68.3837890625,42.8955078125,26.1279296875
22.6373278,-68.7744140625,44.8974609375,39.6533203125
22.6777792,-70.1416015625,45.0439453125,41.9970703125
22.7108411,-70.2880859375,45.4345703125,37.4560546875
22.7262571,-71.3134765625,44.3603515625,29.5947265625
22.7699572,-72.2900390625,44.6533203125,15.8251953125
22.7876963,-72.8271484375,44.8974609375,3.4716796875
22.8290942,-73.9501953125,44.8974609375,-3.2666015625
22.8496949,-74.7802734375,43.8232421875,-6.1474609375
22.8898304,-75.3662109375,42.9931640625,-6.4404296875
22.9118126,-74.3896484375,42.8955078125,-7.4169921875
22.9378172,-70.4833984375,43.3349609375,-10.3466796875
22.9688252,-67.2607421875,43.1396484375,-14.6923828125
23.0103635,-65.6982421875,42.9443359375,-20.5517578125
23.0305228,-65.3076171875,41.6748046875,-26.6064453125
23.0714829,-64.5263671875,40.8447265625,-31.3427734375
23.0883441,-64.3798828125,39.7705078125,-37.1533203125
23.1211623,-64.8193359375,39.4287109375,-42.4267578125
23.1601735,-65.7958984375,39.1357421875,-47.7978515625
23.1812091,-66.1376953125,40.4541015625,-52.0947265625
23.2097464,-65.6005859375,42.8955078125,-39.0087890625
23.2500789,-66.1865234375,45.1416015625,-4.8779296875
23.2699531,-65.9912109375,46.0693359375,23.9794921875
23.2994158,-67.0166015625,47.2412109375,39.0185546875
23.3290152,-67.2119140625,48.5595703125,43.5595703125
23.3618746,-68.5302734375,48.2666015625,40.3857421875
23.3899631,-69.3115234375,47.7294921875,32.4755859375
23.4168302,-70.1416015625,46.3134765625,20.0244140625
23.4500016,-71.0693359375,47.3388671875,6.7919921875
23.4799522,-72.6806640625,48.1201171875,-0.5322265625
23.5119776,-73.3154296875,46.7041015625,-4.2919921875
23.5503555,-74.1943359375,45.1904296875,-5.2685546875
23.5693716,-74.1455078125,45.3369140625,-6.6357421875
23.5971048,-70.2880859375,44.3115234375,-8.9306640625
23.6323187,-66.4306640625,43.5791015625,-13.2275390625
23.6719857,-64.2333984375,42.4072265625,-19.0869140625
23.6930501,-63.3544921875,40.8935546875,-25.0927734375
23.7331996,-63.1591796875,40.5029296875,-30.6591796875
23.7522311,-62.2314453125,38.9892578125,-35.3955078125
23.7842379,-62.4755859375,38.1103515625,-41.3525390625
23.8101898,-63.0126953125,36.4501953125,-46.9189453125
23.8432285,-64.0380859375,35.8154296875,-52.0458984375
23.8744615,-64.2333984375,37.2802734375,-53.5107421875
23.9022073,-63.8916015625,38.9892578125,-31.3427734375
23.9322444,-64.0380859375,39.7216796875,3.3740234375
23.9638397,-65.3076171875,40.2587890625,28.0322265625
23.9926286,-65.9423828125,40.7958984375,38.7744140625
24.0231403,-66.4306640625,41.4794921875,39.9951171875
24.0551106,-67.0166015625,40.8447265625,34.7705078125
24.0828835,-69.0185546875,39.2333984375,23.5400390625
24.1153207,-69.3115234375,39.4287109375,9.7705078125
24.1413284,-70.6787109375,39.8681640625,-2.0947265625
24.1723193,-70.7275390625,39.5751953125,-6.0498046875
24.2053263,-72.4853515625,38.4033203125,-7.1728515625
24.2327353,-73.3154296875,38.5009765625,-7.0751953125
24.2659388,-72.3388671875,36.7431640625,-8.6865234375
24.2951055,-68.2861328125,36.0595703125,-11.0791015625
24.3234766,-65.1611328125,35.3271484375,-16.3037109375
24.3570221,-63.4521484375,34.5458984375,-21.0400390625
24.3835908,-63.5009765625,34.2529296875,-26.9970703125
24.4122437,-62.9638671875,31.9580078125,-32.5146484375
24.4471788,-62.9638671875,32.0068359375,-37.3486328125
24.4745309,-63.6474609375,31.1279296875,-42.1826171875
24.5045864,-64.5751953125,29.9560546875,-47.8955078125
24.5365464,-64.3310546875,31.3720703125,-51.3623046875
24.5656371,-64.0869140625,33.4716796875,-38.5693359375
24.5976475,-63.7451171875,34.6923828125,-6.3916015625
24.6266329,-64.4775390625,35.4248046875,20.1708984375
24.6560554,-64.9658203125,36.2548828125,33.7451171875
24.6866597,-65.9423828125,36.8896484375,37.5537109375
24.7156125,-66.5771484375,36.6455078125,33.4033203125
24.7477402,-67.9443359375,34.4482421875,24.3212890625
24.792438,-69.0673828125,35.2294921875,10.0146484375
24.8127309,-69.6044921875,36.5966796875,-1.7041015625
24.8368022,-70.6787109375,36.0107421875,-7.8076171875
24.8668054,-71.9482421875,34.9365234375,-8.9306640625
24.8964334,-72.3876953125,34.3994140625,-8.9306640625
24.9296606,-72.8271484375,34.6435546875,-8.6865234375
24.9565759,-69.4580078125,35.3759765625,-11.9091796875
24.9862618,-65.7958984375,34.2041015625,-16.5478515625
25.019281,-63.7451171875,34.0576171875,-21.6748046875
25.0491722,-63.0126953125,33.9599609375,-27.0947265625
25.0777629,-63.0615234375,34.0087890625,-32.6611328125
25.1251869,-62.4755859375,33.9599609375,-37.5927734375
25.1372384,-63.5986328125,33.8623046875,-43.5986328125
25.1853651,-64.0380859375,34.4970703125,-49.5068359375
25.1991363,-64.6728515625,35.6689453125,-46.9189453125
25.2281447,-64.5751953125,37.1337890625,-21.1376953125
25.2574844,-64.7216796875,38.7451171875,10.3076171875
25.3072511,-64.8193359375,39.4287109375,32.3291015625
25.3293487,-65.4541015625,40.9912109375,40.4833984375
25.3513676,-65.6982421875,41.5771484375,40.0439453125
25.3793472,-67.2119140625,41.4794921875,33.8427734375
25.4073321,-67.9931640625,41.6259765625,22.7099609375
25.4574077,-69.0185546875,42.9443359375,8.6474609375
25.4767752,-69.8486328125,43.5302734375,-0.9716796875
25.5157968,-70.4833984375,44.3115234375,-4.6826171875
25.5352797,-71.9482421875,44.3115234375,-5.8544921875
25.5755374,-72.2412109375,44.4580078125,-6.0986328125
25.5945951,-71.0693359375,43.8232421875,-7.4658203125
25.6404983,-67.5048828125,43.7744140625,-10.9814453125
25.6574893,-64.4775390625,42.7490234375,-15.8642578125
25.6842363,-62.9638671875,42.4072265625,-22.0166015625
25.7104674,-62.0361328125,42.2119140625,-27.8271484375
25.7390739,-61.4990234375,41.6259765625,-32.8076171875
25.7880673,-61.8408203125,41.0400390625,-38.5205078125
25.8095806,-62.9150390625,41.3818359375,-43.6474609375
25.8289267,-63.4521484375,42.1630859375,-45.4052734375
25.8801008,-63.4521484375,45.2392578125,-24.7509765625
25.9009227,-63.0615234375,46.6064453125,7.5244140625
25.9407187,-63.3544921875,47.4853515625,32.6220703125
25.9622806,-63.6962890625,48.8525390625,44.3408203125
25.9813784,-64.2333984375,49.2919921875,46.0986328125
26.014146,-64.5751953125,48.7548828125,41.3623046875
26.0443034,-65.6494140625,47.9248046875,32.2314453125
26.0932304,-66.5771484375,47.0947265625,20.0244140625
26.106483,-67.4560546875,48.8525390625,8.7451171875
26.1465268,-68.4814453125,48.8037109375,2.4462890625
26.168513,-69.5068359375,48.0712890625,1.1767578125
26.2089425,-70.2880859375,47.9248046875,0.4443359375
26.2290497,-70.6787109375,47.5830078125,-1.0205078125
26.2680286,-67.4560546875,47.8759765625,-4.5849609375
26.2888201,-63.9404296875,47.6318359375,-8.7841796875
26.3301634,-61.6943359375,47.0458984375,-14.6923828125
26.3514713,-60.3759765625,46.2646484375,-19.8681640625
26.3918516,-59.2529296875,46.5087890625,-25.1416015625
26.4119734,-59.5947265625,46.1181640625,-30.5126953125
26.4510315,-60.0341796875,44.8974609375,-36.2255859375
26.4716532,-60.2783203125,44.2138671875,-41.7919921875
26.4996168,-61.0107421875,45.2392578125,-42.1826171875
26.5398969,-61.1083984375,47.9248046875,-17.9638671875
26.5595826,-61.1572265625,47.8759765625,13.6767578125
26.6038576,-60.7666015625,47.6318359375,38.1396484375
26.6237608,-61.8896484375,48.4619140625,49.2236328125
26.6621847,-62.0361328125,48.6083984375,49.6630859375
26.6844209,-63.0126953125,47.9736328125,44.5361328125
26.7260555,-64.0869140625,46.7529296875,35.3564453125
26.7468316,-64.9169921875,46.2158203125,22.7587890625
26.7674969,-65.3076171875,45.5322265625,12.8955078125
26.7970167,-66.0400390625,45.3369140625,7.5732421875
26.8443818,-67.7490234375,44.3603515625,5.6689453125
26.8584642,-68.9208984375,42.8955078125,5.5224609375
26.9041924,-68.4814453125,42.5048828125,3.5205078125
26.9248926,-65.7958984375,41.5771484375,0.1025390625
26.9469404,-62.0361328125,40.8447265625,-4.3896484375
26.9760596,-60.1806640625,39.7216796875,-9.5654296875
27.0267332,-58.7646484375,38.7939453125,-15.3271484375
27.0377969,-59.0087890625,37.2314453125,-19.7705078125
27.0875426,-58.2275390625,37.2314453125,-24.5556640625
27.0997153,-58.3740234375,36.0107421875,-30.0244140625
27.1436455,-59.5458984375,35.8642578125,-35.4443359375
27.1662892,-59.6923828125,36.9873046875,-36.8603515625
27.2070837,-59.4482421875,38.6474609375,-17.0361328125
27.2297407,-59.3505859375,39.5263671875,15.1416015625
27.2497316,-59.8388671875,40.5517578125,39.1162109375
27.2986995,-60.2294921875,41.1865234375,49.8095703125
27.3178859,-60.7666015625,41.5771484375,51.4208984375
27.365908,-61.8408203125,40.8935546875,46.0009765625
27.3982157,-62.6220703125,39.4775390625,36.0400390625
27.4017742,-63.5986328125,40.2099609375,22.7099609375
27.4472863,-64.7705078125,41.3818359375,11.6259765625
27.4671824,-65.5517578125,40.2099609375,8.0615234375
27.4904705,-67.1630859375,38.8427734375,7.0361328125
27.5208494,-67.7001953125,37.6220703125,7.2802734375
27.5687399,-68.3837890625,37.2314453125,6.0107421875
27.5876592,-65.8935546875,36.7431640625,2.4462890625
27.6282834,-61.9873046875,35.4248046875,-1.8994140625
27.6392508,-59.8876953125,35.0341796875,-7.4169921875
27.6737144,-58.4716796875,34.5947265625,-12.4462890625
27.7172972,-58.0322265625,33.4716796875,-18.1103515625
27.7293358,-58.2763671875,32.3974609375,-22.3583984375
27.7810001,-58.1298828125,31.7626953125,-27.8759765625
27.7924417,-59.3505859375,31.8603515625,-32.1728515625
27.8259717,-60.3271484375,35.2294921875,-28.5107421875
27.8678341,-59.4482421875,38.0615234375,-2.5830078125
27.8858902,-59.4482421875,38.5986328125,27.2509765625
27.92791,-60.7177734375,40.6494140625,45.3173828125
27.9497848,-60.6201171875,42.4072265625,53.0810546875
27.9900929,-61.3525390625,43.3837890625,52.5439453125
28.0049078,-62.4267578125,41.8212890625,45.3173828125
28.0341268,-62.8173828125,41.5771484375,33.9404296875
28.0631028,-64.1357421875,42.2607421875,20.2197265625
28.095999,-65.2099609375,43.5302734375,12.2119140625
28.124028,-65.6005859375,42.2119140625,9.3310546875
28.1560833,-66.7724609375,41.8212890625,8.8916015625
28.1851493,-67.6513671875,41.8701171875,8.3544921875
28.2152032,-68.2373046875,42.0654296875,6.3525390625
28.26016,-65.5029296875,42.3583984375,2.2998046875
28.2749806,-61.8896484375,42.6513671875,-2.7783203125
28.3029619,-59.4482421875,41.9677734375,-8.4912109375
28.3369541,-58.9111328125,41.6259765625,-13.7646484375
28.3819902,-58.4228515625,41.6748046875,-18.2568359375
28.3970291,-58.1298828125,40.9423828125,-24.0673828125
28.4280124,-58.5205078125,40.5029296875,-29.3408203125
28.4720344,-59.8876953125,41.6259765625,-33.7353515625
28.482928,-59.7412109375,43.4814453125,-22.6513671875
28.5145507,-59.3994140625,46.2158203125,8.6962890625
28.5441265,-59.5458984375,47.2900390625,35.7958984375
28.5780961,-59.9853515625,48.4130859375,51.4697265625
28.607998,-60.3271484375,49.0966796875,55.6201171875
28.6374412,-61.3525390625,49.0478515625,53.4716796875
28.6704953,-62.4755859375,48.5595703125,45.6103515625
28.69747,-63.0126953125,48.1689453125,34.1845703125
28.7294675,-64.1845703125,48.9501953125,21.0986328125
28.7586443,-64.8681640625,48.0224609375,13.8720703125
28.7877921,-65.9912109375,48.5107421875,11.0400390625
28.8148169,-67.3095703125,48.0712890625,10.3076171875
28.8488428,-68.1396484375,48.2177734375,9.1357421875
28.8787463,-67.3583984375,47.9248046875,6.5966796875
28.9115232,-64.3310546875,47.7783203125,1.6650390625
28.9371999,-61.0107421875,47.4365234375,-3.7060546875
28.9683269,-59.0576171875,47.0458984375,-9.5166015625
28.9993333,-58.3740234375,46.8017578125,-14.3505859375
29.0288918,-57.3486328125,45.7763671875,-19.2822265625
29.0587931,-57.3486328125,46.0205078125,-25.5322265625
29.0918726,-57.4951171875,44.7021484375,-30.3662109375
29.1178079,-58.7646484375,44.8974609375,-35.9326171875
29.1518359,-58.7158203125,46.0693359375,-36.3232421875
29.1818556,-58.4716796875,48.7060546875,-14.2529296875
29.2096064,-58.9599609375,50.1220703125,19.3408203125
29.23779,-59.3505859375,49.8291015625,42.9248046875
29.2708252,-59.6435546875,50.8544921875,53.6669921875
29.3013098,-60.5712890625,51.4892578125,54.8876953125
29.3333209,-60.9619140625,51.1474609375,51.0302734375
29.3624359,-62.5732421875,49.5849609375,42.3388671875
29.3888101,-63.9404296875,48.7548828125,29.9365234375
29.4227736,-64.3798828125,48.6572265625,18.6083984375
29.4517862,-65.1611328125,47.8759765625,12.2607421875
29.482773,-66.2841796875,46.6552734375,9.8193359375
29.5127433,-67.1630859375,45.5322265625,8.5986328125
29.5398065,-68.4814453125,44.9462890625,7.1337890625
29.5739735,-66.5283203125,44.2138671875,3.6181640625
29.6037798,-63.3544921875,42.8955078125,-0.9228515625
29.6317577,-59.9365234375,42.4072265625,-6.6357421875
29.6638116,-58.3251953125,41.1376953125,-11.9091796875
29.6937528,-57.2021484375,40.2099609375,-18.1103515625
29.7223717,-56.7138671875,39.0869140625,-22.5048828125
29.7552344,-56.4208984375,37.9638671875,-28.2177734375
29.7831047,-57.7392578125,37.3779296875,-33.3447265625
29.812328,-58.0322265625,36.9384765625,-38.5205078125
29.8443231,-58.7158203125,38.4033203125,-35.7373046875
29.8713056,-58.1787109375,39.6728515625,-8.1494140625
29.9063035,-59.2041015625,40.5517578125,23.2470703125
29.932775,-58.6669921875,41.6259765625,43.0224609375
29.961721,-59.8876953125,42.0166015625,50.6396484375
29.9957296,-61.4990234375,42.7978515625,49.7607421875
30.0251528,-61.9873046875,40.7470703125,43.4619140625
30.0576792,-63.4033203125,40.7470703125,32.7197265625
30.0867756,-64.3310546875,39.7705078125,19.7314453125
30.1128897,-65.2587890625,39.7705078125,10.4052734375
30.1439205,-65.8935546875,39.6728515625,6.4990234375
30.1764454,-67.5537109375,39.2822265625,5.8154296875
30.2034979,-68.6767578125,37.9150390625,4.7412109375
30.2375178,-69.4091796875,37.8662109375,2.8857421875
30.266516,-67.3583984375,36.5478515625,-0.9716796875
30.2952773,-63.6962890625,35.3759765625,-6.0986328125
30.328301,-61.2060546875,34.7900390625,-10.9326171875
30.355274,-59.9365234375,34.4482421875,-16.4501953125
30.3842998,-59.5458984375,33.4228515625,-21.3818359375
30.4162472,-59.1064453125,32.2509765625,-26.6552734375
30.4470898,-58.8623046875,31.6162109375,-31.9775390625
30.4788616,-60.4248046875,31.5185546875,-37.1533203125
30.5074875,-60.9130859375,32.7392578125,-36.0302734375
30.5362436,-60.7666015625,34.5458984375,-11.8603515625
30.5622302,-60.7666015625,36.0595703125,19.0966796875
30.597242,-60.8642578125,37.2314453125,38.2373046875
30.6415967,-61.5966796875,38.8427734375,46.5380859375
30.6616416,-61.9873046875,39.9169921875,45.7568359375
30.6866767,-63.0126953125,39.7705078125,39.2138671875
30.7176869,-64.4287109375,38.9892578125,27.9345703125
30.750185,-65.3076171875,40.6494140625,14.0185546875
30.7789568,-66.0888671875,41.5283203125,4.5947265625
30.8266687,-66.9677734375,41.0888671875,1.0302734375
30.8376823,-67.8466796875,40.2587890625,0.4443359375
30.8847884,-69.7509765625,40.4541015625,0.5419921875
30.9049873,-70.1904296875,41.5283203125,-1.3134765625
30.9455471,-69.5068359375,40.7470703125,-5.5126953125
30.9659794,-65.8447265625,41.1865234375,-11.1279296875
31.0049784,-63.4521484375,40.6494140625,-16.5478515625
31.0246828,-62.3779296875,40.4541015625,-21.9677734375
31.0662658,-61.3525390625,40.5029296875,-27.4853515625
31.0858428,-61.0107421875,40.2099609375,-32.3193359375
31.1229441,-61.5478515625,39.9658203125,-37.1533203125
31.1447109,-62.2314453125,41.6259765625,-41.7431640625
31.1911201,-62.6708984375,43.2861328125,-28.6572265625
31.2111744,-62.3779296875,45.5810546875,3.0322265625
31.2318666,-62.4755859375,46.5576171875,29.9853515625
31.2601397,-62.2802734375,47.6318359375,44.3408203125
31.2872926,-63.5009765625,48.2177734375,48.6865234375
31.3213632,-63.4521484375,48.4130859375,44.6826171875
31.3519077,-64.5751953125,47.8759765625,36.2841796875
31.3769017,-65.8935546875,48.0712890625,24.4677734375
31.4125875,-66.9189453125,48.9013671875,12.0654296875
31.4400381,-67.8955078125,48.3642578125,4.9365234375
31.4918236,-68.9208984375,48.3642578125,2.0556640625
31.5153909,-70.0927734375,47.8759765625,1.3232421875
31.5320645,-71.0205078125,47.6806640625,-0.4345703125
31.5599814,-71.0205078125,48.1689453125,-3.3154296875
31.5920275,-68.9208984375,47.6318359375,-7.5146484375
31.6228264,-65.6494140625,46.5576171875,-13.9111328125
31.6520906,-63.6474609375,46.9970703125,-19.0380859375
31.682412,-62.2314453125,45.7763671875,-25.1904296875
31.7124936,-60.4736328125,45.5810546875,-30.3662109375
31.7441742,-60.8642578125,45.2880859375,-35.7373046875
31.7742959,-60.6689453125,45.1416015625,-41.5478515625
31.8328185,-62.0361328125,46.8994140625,-43.6962890625
31.8363376,-62.3291015625,48.9990234375,-23.7255859375
31.8617096,-62.7685546875,51.0986328125,11.2353515625
31.9112709,-62.4267578125,52.3681640625,36.8701171875
31.9314488,-62.8173828125,52.9052734375,49.1259765625
31.9544481,-62.9638671875,53.4912109375,51.1767578125
31.9870896,-64.4287109375,54.0771484375,46.8310546875
32.0120033,-64.9169921875,53.1005859375,38.1884765625
32.0448708,-66.3330078125,52.7099609375,26.0302734375
32.0749961,-67.0166015625,53.2470703125,14.0673828125
32.1036391,-67.8955078125,52.2705078125,6.8408203125
32.1350918,-69.1162109375,50.1220703125,4.3017578125
32.1852083,-70.3857421875,48.8037109375,2.0556640625
32.2118674,-71.4599609375,47.4853515625,0.2978515625
32.2276512,-71.8994140625,48.1201171875,-2.8271484375
32.258129,-68.9208984375,46.8505859375,-7.3193359375
32.2833693,-64.9169921875,45.6298828125,-13.5205078125
32.3163921,-62.6708984375,45.2880859375,-19.7705078125
32.3484038,-61.5966796875,43.9697265625,-25.0439453125
32.3764472,-61.4501953125,42.8466796875,-30.0732421875
32.4264271,-60.6689453125,41.9189453125,-35.0048828125
32.4467381,-61.2060546875,40.3076171875,-41.0107421875
32.467477,-61.3525390625,39.9169921875,-46.2353515625
32.4963313,-61.7919921875,41.4306640625,-50.9716796875
32.5253483,-62.5244140625,42.7001953125,-35.0537109375
32.5593682,-61.9384765625,44.6044921875,0.6396484375
32.5863033,-62.2802734375,45.2880859375,29.9365234375
32.6168546,-63.3056640625,45.4345703125,44.9267578125
32.6649475,-64.3798828125,45.6298828125,48.9794921875
32.6882043,-65.0146484375,45.1416015625,45.5126953125
32.7088168,-66.5771484375,44.1162109375,36.8701171875
32.7385687,-67.6513671875,44.1650390625,24.3701171875
32.7685693,-68.3349609375,43.7744140625,12.7001953125
32.8005868,-69.3603515625,43.6767578125,4.8388671875
32.8467587,-70.4345703125,42.8466796875,2.2509765625
32.8667125,-71.9482421875,42.6513671875,0.8349609375
32.8868146,-72.8759765625,41.5771484375,-0.0927734375
32.9187582,-73.3642578125,40.4541015625,-2.6318359375
32.9497421,-71.6064453125,39.5263671875,-7.3681640625
32.9807838,-67.7978515625,38.3056640625,-13.1298828125
33.0097662,-64.4775390625,37.5732421875,-18.2080078125
33.0385541,-63.4033203125,36.3525390625,-23.2861328125
33.0728043,-63.4033203125,35.9619140625,-28.4619140625
33.0998232,-62.3291015625,34.5947265625,-33.4423828125
33.1335748,-62.4267578125,33.1787109375,-38.9111328125
33.1590785,-63.3056640625,34.2041015625,-44.3798828125
33.1893696,-64.2822265625,35.0341796875,-45.9423828125
33.2211853,-64.1845703125,36.3525390625,-24.2138671875
33.2501644,-64.0380859375,38.1591796875,9.5751953125
33.2800534,-64.4287109375,39.3310546875,32.8662109375
33.3121699,-65.4052734375,40.0634765625,43.4130859375
33.3411634,-65.9912109375,38.7939453125,43.8037109375
33.3738189,-66.9677734375,37.7197265625,37.7001953125
33.4034359,-68.2373046875,37.6220703125,26.7138671875
33.4327776,-69.2138671875,37.3779296875,12.1630859375
33.4607101,-69.7021484375,37.4755859375,0.9814453125
33.4948084,-71.3623046875,36.0595703125,-3.0224609375
33.5218229,-72.0458984375,35.4248046875,-4.1943359375
33.5538324,-73.4130859375,35.4248046875,-3.9013671875
33.5808379,-74.4384765625,35.8642578125,-5.3173828125
33.6122435,-74.2919921875,35.6201171875,-8.7841796875
33.6444395,-72.8271484375,36.1083984375,-14.1552734375
33.6748378,-69.0673828125,35.3271484375,-18.9404296875
33.7011497,-66.1865234375,35.0341796875,-24.4580078125
33.7348366,-65.9912109375,34.9365234375,-29.7314453125
33.7618518,-65.0146484375,34.9853515625,-35.1025390625
33.7948066,-65.0634765625,34.9853515625,-41.3037109375
33.823828,-65.8447265625,35.4736328125,-46.6748046875
33.8529,-66.3818359375,36.7431640625,-50.0439453125
33.8860021,-67.2607421875,38.5009765625,-31.0498046875
33.913447,-67.1630859375,40.0146484375,3.5693359375
33.9449299,-67.2119140625,41.1865234375,28.9599609375
33.9764845,-67.4072265625,43.6767578125,40.8251953125
34.0069314,-67.8955078125,44.3115234375,43.3642578125
34.0339878,-68.9697265625,44.5068359375,37.9443359375
34.0669075,-69.7021484375,44.2626953125,28.1298828125
34.0959282,-70.3369140625,44.3115234375,13.9697265625
34.1293978,-71.0205078125,45.3857421875,2.2021484375
34.1578828,-72.4365234375,45.2880859375,-3.6572265625
34.1849625,-73.4130859375,45.9716796875,-5.2197265625
34.2178064,-74.2919921875,45.2392578125,-5.3173828125
34.2469075,-75.8544921875,45.1416015625,-7.6611328125
34.2758848,-76.0498046875,44.9951171875,-10.2001953125
34.3068902,-74.2431640625,44.0673828125,-15.6201171875
34.3368705,-70.9228515625,44.5556640625,-20.6494140625
34.3658068,-68.2861328125,43.7744140625,-26.5087890625
34.3978493,-66.6259765625,43.2373046875,-31.7333984375
34.4264874,-66.0400390625,42.9443359375,-36.6650390625
34.4546649,-66.2841796875,42.0654296875,-42.0849609375
34.488423,-65.8935546875,41.8701171875,-47.7490234375
34.518774,-67.0654296875,44.0673828125,-47.3583984375
34.5500616,-67.5048828125,45.8251953125,-20.0634765625
34.5766728,-67.4560546875,47.7783203125,14.0673828125
34.6078145,-67.2607421875,47.8759765625,36.5283203125
34.6406602,-67.4072265625,49.1455078125,46.8798828125
34.6692615,-68.0908203125,49.6826171875,47.3193359375
34.7015238,-68.3837890625,50.3662109375,41.9970703125
34.7313515,-69.6044921875,49.7314453125,31.9384765625
34.7596598,-70.7763671875,49.7314453125,18.9990234375
34.7883074,-71.1181640625,49.8291015625,7.7197265625
34.8200041,-72.3876953125,49.5849609375,2.8369140625
34.8479849,-72.6806640625,49.0478515625,-0.2392578125
34.8799741,-74.0966796875,47.6806640625,-0.7275390625
34.9100441,-75.1708984375,47.9248046875,-3.0712890625
34.9364152,-76.0986328125,48.0224609375,-6.1474609375
34.969845,-73.8037109375,47.2900390625,-10.9814453125
34.9988899,-70.2880859375,46.9970703125,-16.4013671875
35.0299951,-67.2607421875,46.7041015625,-22.3583984375
35.0629821,-66.0888671875,46.3623046875,-27.8759765625
35.0918601,-64.7705078125,45.8740234375,-33.4912109375
35.1249758,-64.1357421875,44.8486328125,-39.3017578125
35.1528911,-64.2333984375,45.3369140625,-44.7216796875
35.1787009,-64.9169921875,46.3623046875,-47.4560546875
35.2107356,-65.7470703125,47.3388671875,-27.6806640625
35.2427713,-65.5029296875,48.6572265625,7.1826171875
35.2703986,-65.2587890625,48.1201171875,33.7939453125
35.300396,-65.5517578125,47.9736328125,46.4892578125
35.3293497,-66.0400390625,48.9990234375,49.2724609375
35.3594074,-66.4794921875,48.0712890625,45.0244140625
35.3943664,-67.0654296875,47.2412109375,36.8212890625
35.4224199,-68.2861328125,46.0205078125,23.7841796875
35.4561815,-69.1650390625,45.9228515625,11.3818359375
35.4846336,-69.8486328125,44.9951171875,4.8876953125
35.5118251,-70.7275390625,43.8720703125,1.0791015625
35.5434121,-71.9970703125,43.7255859375,0.3466796875
35.5733798,-73.0712890625,42.8466796875,-0.5810546875
35.6003772,-73.7060546875,41.7236328125,-3.9013671875
35.6365383,-73.3642578125,40.7470703125,-8.0029296875
35.6620826,-69.7509765625,40.1123046875,-13.1787109375
35.6953634,-66.1376953125,39.4775390625,-19.0869140625
35.7256941,-64.5751953125,38.5498046875,-24.6533203125
35.7556902,-63.1103515625,37.2802734375,-29.5849609375
35.780838,-62.6708984375,36.9873046875,-34.3701171875
35.8158269,-62.6708984375,35.4248046875,-38.9599609375
35.8441938,-62.4267578125,34.9853515625,-45.1123046875
35.8766503,-63.6962890625,37.1337890625,-48.6279296875
35.9039006,-64.4287109375,38.6474609375,-31.5869140625
35.9329599,-63.5986328125,39.9169921875,2.4462890625
35.9666672,-64.0869140625,39.6728515625,29.7412109375
35.9925775,-63.9404296875,41.3818359375,42.9736328125
36.0276102,-64.9169921875,41.8212890625,45.8056640625
36.0575724,-66.2841796875,41.5771484375,41.8505859375
36.0835945,-67.0654296875,39.9658203125,32.6708984375
36.1371829,-67.8466796875,40.5517578125,20.0732421875
36.1572395,-69.1162109375,39.8193359375,8.1103515625
36.1742324,-69.9951171875,39.2822265625,1.9580078125
36.2042764,-70.8740234375,38.7451171875,0.0048828125
36.2382634,-72.0458984375,38.7939453125,0.3466796875
36.2649255,-72.8759765625,37.6220703125,-1.8994140625
36.3000317,-74.2919921875,36.1083984375,-4.0966796875
36.3277681,-74.3896484375,35.6689453125,-9.3212890625
36.3568313,-70.9228515625,35.5224609375,-14.4970703125
36.3887456,-67.3583984375,34.4970703125,-19.5263671875
36.414748,-65.5517578125,33.3740234375,-24.7021484375
36.4515717,-64.2822265625,33.5205078125,-29.5361328125
36.4794012,-64.1357421875,32.2021484375,-35.1513671875
36.5057673,-63.4033203125,31.2255859375,-40.3759765625
36.5413804,-63.8916015625,32.4462890625,-43.5498046875
36.5697367,-64.8193359375,35.1318359375,-29.9755859375
36.5977626,-65.4541015625,36.6943359375,1.9091796875
36.6316126,-65.0634765625,37.8173828125,27.8369140625
36.657383,-65.4052734375,40.3076171875,41.3623046875
36.6920432,-65.2099609375,41.6259765625,44.1943359375
36.7216022,-65.9912109375,42.2119140625,40.9716796875
36.7475457,-67.3095703125,41.0888671875,31.5478515625
36.7765591,-68.5791015625,41.4794921875,17.6318359375
36.8105663,-69.3115234375,42.8466796875,5.5224609375
36.8390047,-69.9951171875,43.0419921875,-0.7275390625
36.8699295,-70.8740234375,41.7724609375,-2.0458984375
36.8997106,-71.8994140625,41.7724609375,-1.8505859375
36.9287634,-72.6318359375,42.7978515625,-3.6083984375
36.9606841,-74.2431640625,42.7978515625,-6.7822265625
36.9886708,-74.4384765625,42.6025390625,-11.8603515625
37.0176745,-71.9970703125,42.9931640625,-16.9873046875
37.0497433,-68.4326171875,41.9677734375,-22.7978515625
37.0797778,-66.3330078125,41.8212890625,-27.9736328125
37.1136644,-65.2587890625,41.7724609375,-32.4658203125
37.1395455,-64.6240234375,41.9189453125,-38.4228515625
37.1717153,-64.6728515625,42.0166015625,-43.0126953125
37.2051597,-65.3564453125,43.4814453125,-46.1865234375
37.2322819,-66.0888671875,45.4833984375,-28.7548828125
37.2600258,-66.5771484375,46.7529296875,4.6923828125
37.2920837,-66.5283203125,48.0224609375,30.5712890625
37.3220316,-66.0400390625,49.1943359375,42.9248046875
37.3525642,-66.4306640625,49.4384765625,45.5126953125
37.3840188,-67.3583984375,49.7802734375,41.2158203125
37.4126003,-67.9443359375,49.2431640625,32.1337890625
37.4441233,-69.3115234375,49.4873046875,19.6826171875
37.4747003,-70.6298828125,49.7314453125,8.0126953125
37.5025456,-70.7275390625,49.7314453125,1.7138671875
37.5351887,-71.8017578125,48.6083984375,-1.5087890625
37.5621332,-72.5830078125,47.9736328125,-1.4599609375
37.5923277,-73.7060546875,48.8525390625,-3.3642578125
37.6260677,-74.5849609375,48.9501953125,-6.6357421875
37.652034,-75.1708984375,47.9736328125,-11.4208984375
37.6867711,-72.2900390625,48.1201171875,-16.8408203125
37.7147173,-68.4814453125,47.2900390625,-22.6025390625
37.7437795,-66.4306640625,46.8994140625,-27.8271484375
37.773825,-65.1123046875,47.3388671875,-32.5634765625
37.8067622,-64.6728515625,45.9716796875,-38.8623046875
37.8317431,-64.3798828125,46.3134765625,-44.1357421875
37.8658195,-64.4287109375,46.5576171875,-48.1884765625
37.8967097,-65.2099609375,48.9990234375,-35.9814453125
37.9237459,-66.1865234375,50.6591796875,-2.1923828125
37.9742519,-66.0400390625,50.7568359375,26.8115234375
37.9852397,-65.8447265625,52.1240234375,42.4853515625
38.0162274,-65.9912109375,53.0517578125,46.9287109375
38.0482087,-66.7236328125,53.0517578125,44.0478515625
38.0734171,-67.4072265625,51.8310546875,37.1630859375
38.1109183,-68.3349609375,50.9033203125,25.3955078125
38.1383518,-68.9697265625,51.4892578125,13.2373046875
38.164041,-70.0927734375,51.2451171875,4.8876953125
38.2021452,-71.0205078125,49.3408203125,0.2001953125
38.2271332,-71.8017578125,47.9248046875,-1.5087890625
38.2531435,-73.0712890625,47.3388671875,-2.7294921875
38.2874404,-74.1943359375,46.0693359375,-6.0498046875
38.3161986,-74.9267578125,44.7998046875,-10.4931640625
38.347201,-73.4130859375,44.0185546875,-15.8642578125
38.3762369,-69.6533203125,43.5302734375,-21.8701171875
38.4064525,-66.8212890625,42.6025390625,-27.7783203125
38.4400474,-65.3076171875,41.3818359375,-32.5146484375
38.469062,-64.1845703125,40.5029296875,-37.3486328125
38.4981821,-63.4521484375,39.7705078125,-42.6220703125
38.530186,-63.4033203125,39.4287109375,-48.2373046875
38.5596822,-63.8427734375,39.7705078125,-53.7548828125
38.5902234,-64.8193359375,42.4072265625,-50.1416015625
38.6212727,-65.0634765625,44.4091796875,-18.9404296875
38.6483797,-65.0146484375,44.2626953125,14.3603515625
38.6762525,-65.4052734375,45.2880859375,34.7216796875
38.7181558,-65.6005859375,45.8740234375,42.8759765625
38.7402411,-66.8212890625,46.8017578125,42.1923828125
38.7712232,-67.4560546875,45.0439453125,36.4794921875
38.7992179,-68.6767578125,44.2626953125,26.4697265625
38.828742,-69.7509765625,44.1162109375,13.4326171875
38.8638137,-70.4345703125,43.9208984375,3.5205078125
38.8886383,-71.3623046875,43.3349609375,-1.1181640625
38.9262117,-72.5341796875,41.8701171875,-2.6806640625
38.9498475,-73.2177734375,41.1376953125,-3.6572265625
38.9808564,-74.4873046875,40.1611328125,-6.1474609375
39.0126119,-75.4638671875,39.7705078125,-9.8583984375
39.0421913,-76.4892578125,38.3544921875,-15.4736328125
39.0712532,-72.3388671875,38.1591796875,-21.2353515625
39.0972314,-69.1162109375,37.0361328125,-26.9970703125
39.1349958,-67.4072265625,36.1572265625,-32.1240234375
39.1596144,-66.1376953125,35.6689453125,-37.3486328125
39.1928674,-65.6494140625,34.4482421875,-42.4755859375
39.2216366,-64.7705078125,33.4716796875,-47.9443359375
39.2511533,-64.9169921875,34.8388671875,-52.6806640625
39.2826391,-66.2353515625,36.6455078125,-49.7509765625
39.3126678,-66.6259765625,38.5498046875,-21.1376953125
39.3461785,-66.4306640625,38.8916015625,10.2099609375
39.3746609,-66.4306640625,40.2099609375,29.5947265625
39.4032584,-66.8701171875,41.0400390625,37.4072265625
39.4306448,-67.5537109375,40.6005859375,35.5029296875
39.4706991,-68.2373046875,38.7939453125,29.5458984375
39.491697,-69.2626953125,38.3056640625,17.4853515625
39.5267087,-70.2880859375,38.3056640625,4.0087890625
39.5547463,-71.6064453125,38.4033203125,-5.7080078125
39.58167,-72.6318359375,37.1826171875,-9.6630859375
39.6147458,-73.0712890625,36.5966796875,-9.5166015625
39.6447363,-73.9013671875,36.5478515625,-11.2255859375
39.6734329,-74.8779296875,36.7919921875,-12.8369140625
39.714279,-76.7822265625,35.9619140625,-17.2314453125
39.7363085,-75.8056640625,35.2783203125,-21.9189453125
39.7663336,-74.0478515625,35.0830078125,-27.9736328125
39.7969455,-70.1416015625,35.7177734375,-32.8564453125
39.8249244,-68.4814453125,35.2783203125,-37.9345703125
39.8558869,-67.2119140625,34.8388671875,-42.8662109375
39.8850595,-66.1865234375,34.7412109375,-48.5791015625
39.9180227,-66.4794921875,36.1083984375,-54.3408203125
39.9465405,-67.1630859375,38.6474609375,-56.4404296875
39.9823066,-67.8466796875,40.6494140625,-34.9560546875
40.0033497,-68.2861328125,42.2119140625,-1.8017578125
40.0386385,-68.0419921875,43.4326171875,22.9052734375
40.0673553,-67.7978515625,43.9697265625,33.4033203125
40.0988752,-68.5302734375,44.5556640625,35.1611328125
40.1268391,-68.8232421875,44.4091796875,29.6923828125
40.1548291,-69.8486328125,42.9443359375,20.1220703125
40.1918118,-70.9716796875,44.2138671875,6.9873046875
40.2170132,-71.7529296875,44.1162109375,-4.7802734375
40.2469431,-73.0224609375,43.5791015625,-10.3466796875
40.2780254,-73.5595703125,42.9931640625,-12.5927734375
40.3090143,-74.2431640625,42.8466796875,-13.5693359375
40.3366574,-75.9033203125,43.3837890625,-15.0830078125
40.3699704,-77.2216796875,43.2861328125,-18.8427734375
40.3998961,-77.7099609375,43.1396484375,-23.1884765625
40.4297893,-76.0498046875,42.4072265625,-28.9990234375
40.4578409,-72.9736328125,41.8701171875,-34.5654296875
40.4878525,-69.9462890625,41.8212890625,-40.5712890625
40.5208401,-68.1396484375,41.5771484375,-44.7705078125
40.5488522,-68.5302734375,41.1376953125,-50.1416015625
40.5796798,-67.4560546875,41.4306640625,-55.9521484375
40.6129442,-67.4560546875,42.1142578125,-59.0283203125
40.6396201,-68.4814453125,44.6533203125,-41.6943359375
40.6728355,-69.0185546875,46.7041015625,-6.6845703125
40.7008737,-69.2138671875,46.2646484375,20.3173828125
40.7308033,-68.7744140625,48.0224609375,33.8427734375
40.7628722,-69.3603515625,48.2666015625,36.9677734375
40.7908162,-69.9462890625,49.2919921875,32.9150390625
40.8218046,-70.6787109375,48.1689453125,24.5654296875
40.8518198,-71.3134765625,48.3154296875,12.6513671875
40.8826871,-72.0947265625,48.5595703125,0.7861328125
40.9090807,-73.2177734375,47.7783203125,-6.8310546875
40.9431777,-73.9013671875,46.8505859375,-9.7607421875
40.9718393,-75.0244140625,46.3134765625,-12.1044921875
41.0041453,-75.9033203125,45.6298828125,-13.3740234375
41.0320119,-77.3193359375,45.1904296875,-16.7919921875
41.0611994,-78.2470703125,43.9697265625,-21.1865234375
41.0902471,-77.6123046875,43.1884765625,-27.1923828125
41.1283943,-73.9501953125,41.7724609375,-32.1240234375
41.1524101,-70.3369140625,41.8701171875,-38.3740234375
41.1843343,-68.8232421875,39.6728515625,-43.3544921875
41.2123871,-68.3349609375,38.5498046875,-48.7255859375
41.2403992,-67.6513671875,37.3779296875,-54.2431640625
41.2759349,-67.1142578125,37.7197265625,-60.0048828125
41.3033842,-67.4560546875,40.0634765625,-59.8583984375
41.3369859,-68.8232421875,41.0888671875,-31.0986328125
41.3638789,-68.8720703125,41.6259765625,2.2998046875
41.3929208,-68.8232421875,41.9677734375,25.0537109375
41.4243298,-69.1650390625,42.8955078125,35.1123046875
41.4524883,-68.9697265625,42.9443359375,34.6240234375
41.4842843,-70.0439453125,42.3583984375,29.3017578125
41.5161025,-70.7275390625,41.4794921875,19.1943359375
41.5421106,-71.8994140625,41.2841796875,7.0361328125
41.5749605,-72.5830078125,40.2587890625,-3.5595703125
41.6051202,-74.5361328125,39.4287109375,-8.3935546875
41.633089,-74.5361328125,38.9892578125,-11.0302734375
41.663619,-76.0009765625,38.7451171875,-12.0068359375
41.6957194,-77.0751953125,37.1826171875,-14.0087890625
41.7231136,-78.3935546875,36.5966796875,-16.4990234375
41.7574971,-78.3935546875,35.7177734375,-22.6025390625
41.7853579,-78.0517578125,34.9365234375,-27.8759765625
41.8150392,-74.3408203125,34.3994140625,-33.1982421875
41.8482253,-70.7763671875,33.0810546875,-38.5205078125
41.8742536,-69.4580078125,33.0322265625,-43.5986328125
41.9072183,-68.5302734375,31.1279296875,-49.2138671875
41.9372262,-68.5302734375,31.1279296875,-54.3408203125
41.9672218,-67.9931640625,32.2998046875,-58.1982421875
41.9941936,-68.2861328125,33.6669921875,-45.6005859375
42.0271648,-69.7998046875,34.8876953125,-12.6904296875
42.0562922,-69.7509765625,36.0107421875,15.7763671875
42.090216,-69.4580078125,36.7919921875,29.2041015625
42.1162009,-69.8486328125,37.0361328125,33.4033203125
42.1462094,-70.7275390625,36.3037109375,29.5458984375
42.1791911,-70.7275390625,34.9365234375,20.6591796875
42.2066455,-71.8994140625,34.9365234375,7.6708984375
42.2336153,-72.8759765625,35.3271484375,-3.8525390625
42.2703822,-73.8037109375,34.3994140625,-10.1513671875
42.297241,-74.3408203125,34.1064453125,-11.5673828125
42.3312702,-75.6591796875,33.9111328125,-12.2021484375
42.3572691,-76.8310546875,34.3994140625,-13.1298828125
42.3899134,-77.5146484375,34.6435546875,-16.3525390625
42.421084,-78.8818359375,34.7900390625,-21.4306640625
42.4489588,-79.1748046875,34.3505859375,-26.5087890625
42.4769397,-76.7822265625,34.4970703125,-31.7333984375
42.5108502,-73.1201171875,33.9111328125,-37.0556640625
42.5388995,-70.6298828125,33.2763671875,-41.8896484375
42.5689896,-69.7998046875,32.9345703125,-46.5771484375
42.6021106,-69.1162109375,34.1064453125,-52.2900390625
42.6298285,-69.2626953125,36.1572265625,-52.3876953125
42.6619273,-69.2138671875,38.0615234375,-29.7802734375
42.693151,-70.8251953125,39.7216796875,2.0556640625
42.7215835,-71.5087890625,40.7958984375,24.9072265625
42.7498943,-71.2158203125,41.9677734375,33.8916015625
42.7809073,-71.3134765625,43.5302734375,34.3798828125
42.8101485,-71.5087890625,42.6025390625,29.0087890625
42.8488823,-71.8994140625,42.1630859375,18.5595703125
42.8700922,-72.4853515625,42.8466796875,4.8388671875
42.9020949,-73.2177734375,43.7255859375,-5.0732421875
42.9313975,-74.4384765625,43.5302734375,-10.0048828125
42.9624157,-75.1220703125,42.0166015625,-11.1767578125
42.9957315,-75.8544921875,42.5048828125,-12.1044921875
43.0224432,-76.9287109375,43.0419921875,-14.3505859375
43.0617006,-78.2958984375,42.5048828125,-17.6220703125
43.0817527,-78.8330078125,41.6259765625,-23.1884765625
43.1137099,-78.5400390625,41.6748046875,-29.2431640625
43.1397342,-75.4638671875,41.5283203125,-34.3701171875
43.1747387,-72.0947265625,40.9423828125,-39.5947265625
43.20374,-70.3857421875,40.5029296875,-44.4775390625
43.23049,-69.5556640625,39.6728515625,-50.3369140625
43.2637295,-69.0185546875,41.1865234375,-54.5361328125
43.290671,-68.7255859375,42.8955078125,-46.6748046875
43.3311244,-69.1650390625,45.3857421875,-15.2783203125
43.3528026,-70.2880859375,46.1669921875,14.4580078125
43.3938973,-69.7998046875,47.2412109375,31.3525390625
43.4172004,-69.8486328125,47.2412109375,37.4072265625
43.4432346,-70.3369140625,47.7783203125,35.6982421875
43.4742622,-70.1416015625,47.4853515625,28.3740234375
43.5081194,-70.7763671875,47.4853515625,16.4599609375
43.5352088,-71.7041015625,47.0458984375,4.5458984375
43.5692011,-72.8759765625,46.8017578125,-3.6572265625
43.5943253,-73.9501953125,46.3623046875,-7.6611328125
43.6352573,-74.7802734375,45.4833984375,-9.3212890625
43.6517954,-75.1708984375,45.3857421875,-12.0556640625
43.6891435,-76.0009765625,45.0439453125,-13.9599609375
43.7162338,-77.1728515625,45.0439453125,-18.1103515625
43.7472139,-77.7587890625,44.1650390625,-23.8232421875
43.7752218,-76.6845703125,44.3603515625,-29.2919921875
43.8188,-72.9736328125,43.7255859375,-35.2490234375
43.8389643,-70.3857421875,41.9677734375,-39.8388671875
43.8668016,-68.7255859375,41.8701171875,-45.6005859375
43.8967743,-67.3583984375,41.5283203125,-50.4833984375
43.9379068,-67.6513671875,41.9189453125,-55.9033203125
43.9558276,-66.8701171875,44.1650390625,-58.1494140625
43.9964658,-67.5048828125,46.0205078125,-36.1767578125
44.0164255,-68.3349609375,46.2646484375,-1.3623046875
44.0546437,-68.0908203125,47.5830078125,22.9541015625
44.0801264,-68.0908203125,48.6083984375,34.2333984375
44.1086197,-68.4326171875,49.9267578125,36.2841796875
44.1370751,-68.7255859375,48.4619140625,31.5478515625
44.1686078,-69.1650390625,46.4599609375,23.0029296875
44.1975138,-70.5322265625,46.8505859375,10.6005859375
44.2375963,-71.0205078125,47.3388671875,-0.6298828125
44.2606574,-71.5576171875,45.7763671875,-7.1728515625
44.289665,-72.8271484375,44.5068359375,-8.7841796875
44.3206414,-73.7060546875,43.5302734375,-10.2978515625
44.3497467,-74.7802734375,43.7255859375,-12.9345703125
44.3865871,-75.7568359375,42.5048828125,-16.3525390625
44.4086022,-76.2939453125,41.8701171875,-21.2353515625
44.4470344,-77.2705078125,40.5517578125,-26.5087890625
44.4680702,-74.8291015625,40.1123046875,-32.2705078125
44.5103436,-71.1669921875,38.1591796875,-38.1298828125
44.530593,-68.7744140625,37.7197265625,-42.3779296875
44.5570096,-67.4560546875,36.2548828125,-47.0654296875
44.5978895,-66.3818359375,35.1318359375,-52.5341796875
44.6190047,-66.2841796875,35.0830078125,-58.2958984375
44.6606957,-65.7958984375,36.6943359375,-60.1513671875
44.681617,-66.7724609375,37.8173828125,-40.7177734375
44.7097077,-67.7978515625,38.5009765625,-5.9521484375
44.7489637,-67.6513671875,39.4287109375,18.5595703125
44.7700259,-67.7978515625,39.4287109375,30.9130859375
44.8096856,-67.7001953125,40.4052734375,32.1826171875
44.8338518,-68.5791015625,39.1845703125,27.8369140625
44.8623842,-69.4580078125,38.5498046875,18.0712890625
44.8958214,-70.1416015625,39.5263671875,5.2783203125
44.9238463,-71.3134765625,40.5517578125,-5.5126953125
44.9541292,-72.1435546875,39.7705078125,-10.1025390625
44.9791352,-73.4619140625,39.3310546875,-11.5673828125
45.01626,-74.3896484375,39.0380859375,-12.4951171875
45.0390169,-75.2197265625,38.8427734375,-13.6181640625
45.0790305,-76.2939453125,38.7939453125,-16.8408203125
45.1018342,-77.0751953125,37.3291015625,-21.7236328125
45.1412685,-77.8564453125,36.8408203125,-26.9482421875
45.1643454,-76.8798828125,35.7666015625,-32.3193359375
45.1943952,-72.7294921875,34.9365234375,-36.9580078125
45.2249521,-70.2392578125,33.8623046875,-42.2802734375
45.2629324,-69.0673828125,32.6416015625,-47.4560546875
45.2833773,-68.4326171875,32.8369140625,-52.8759765625
45.3233233,-67.9443359375,34.8876953125,-55.8544921875
45.3455599,-68.0908203125,36.2548828125,-34.0283203125
45.3741825,-68.9697265625,37.2802734375,-3.1689453125
45.4056139,-69.1650390625,38.4033203125,18.8037109375
45.445744,-68.9697265625,40.2099609375,28.0322265625
45.4627311,-68.8232421875,40.4541015625,28.5205078125
45.5051782,-69.3115234375,38.8427734375,22.6611328125
45.5252014,-69.4091796875,38.1103515625,12.3095703125
45.5647834,-70.2392578125,39.8681640625,-1.0693359375
45.5877879,-71.6064453125,40.1123046875,-11.0302734375
45.626143,-72.3388671875,39.2822265625,-15.4248046875
45.6463687,-73.1201171875,38.5498046875,-15.7177734375
45.6872103,-73.9990234375,38.9892578125,-16.2548828125
45.7021593,-75.0244140625,39.7705078125,-18.4033203125
45.739481,-76.0009765625,39.3310546875,-22.5537109375
45.7669062,-77.2216796875,39.5263671875,-27.6318359375
45.8070274,-77.7099609375,39.0380859375,-32.5634765625
45.8279738,-76.6357421875,38.5986328125,-38.4228515625
45.866868,-73.3642578125,38.5986328125,-43.1591796875
45.8848946,-70.5322265625,38.3544921875,-47.5537109375
45.9242898,-69.5556640625,37.9638671875,-52.4853515625
45.9483297,-68.6279296875,39.4287109375,-58.3935546875
45.9786345,-68.1884765625,40.8447265625,-56.0498046875
46.007298,-68.7744140625,43.5302734375,-30.1220703125
46.0373467,-69.5556640625,43.5791015625,1.3232421875
46.0780507,-69.9462890625,45.1416015625,22.3193359375
46.0976255,-70.3369140625,47.2900390625,29.8876953125
46.1283433,-70.7275390625,47.1923828125,29.3994140625
46.1677621,-70.2880859375,46.4111328125,24.2236328125
46.1886739,-70.8740234375,45.9228515625,12.9931640625
46.2173704,-71.5087890625,47.1435546875,0.2978515625
46.2585307,-72.3388671875,47.2900390625,-9.2236328125
46.278761,-73.7548828125,46.3623046875,-13.7158203125
46.3127914,-74.6826171875,45.4833984375,-15.3271484375
46.3385651,-75.5615234375,45.9716796875,-16.2548828125
46.3786409,-76.5869140625,45.6298828125,-18.5009765625
46.40267,-78.0029296875,45.6298828125,-22.7978515625
46.4286602,-79.0283203125,46.0205078125,-27.9736328125
46.4698451,-78.8330078125,45.5322265625,-33.1982421875
46.4897844,-77.5146484375,45.1904296875,-38.7158203125
46.5279197,-74.0966796875,44.7998046875,-42.6708984375
46.5539571,-71.4111328125,43.8720703125,-48.3349609375
46.5805383,-69.9462890625,44.2138671875,-53.0224609375
46.6107604,-68.6767578125,44.9951171875,-58.3935546875
46.6436132,-68.3349609375,46.6552734375,-55.9521484375
46.6725065,-68.0908203125,48.9501953125,-26.6552734375
46.7017654,-69.5068359375,49.4384765625,5.1806640625
46.732771,-69.9951171875,50.1708984375,25.9814453125
46.7607702,-70.4833984375,51.1962890625,32.8173828125
46.7907509,-70.2880859375,52.5146484375,32.5244140625
46.8231965,-70.0927734375,51.7822265625,26.9580078125
46.8527125,-71.1669921875,50.8056640625,17.4853515625
46.8847443,-71.6552734375,52.0263671875,4.1064453125
46.9137662,-72.7783203125,51.9775390625,-5.3662109375
46.9407434,-73.7060546875,51.2451171875,-9.5654296875
46.9767548,-74.7314453125,49.6826171875,-11.5673828125
47.0040126,-75.5615234375,49.6826171875,-13.2763671875
47.0307401,-77.0263671875,49.6337890625,-15.2783203125
47.0637444,-77.6611328125,49.5849609375,-18.9404296875
47.0947127,-78.8330078125,49.9267578125,-24.3603515625
47.1237309,-79.4677734375,49.3408203125,-30.2197265625
47.156838,-77.5634765625,49.0966796875,-35.2978515625
47.1827735,-74.0966796875,48.7548828125,-40.3759765625
47.2137319,-71.2646484375,48.3642578125,-45.2587890625
47.2441835,-69.8974609375,47.9248046875,-50.7763671875
47.2740293,-68.9697265625,48.1689453125,-55.7568359375
47.3089515,-67.9443359375,49.6337890625,-58.6376953125
47.3342735,-68.0908203125,51.1962890625,-40.1318359375
47.364245,-68.2861328125,51.9775390625,-5.8056640625
47.3962453,-69.0673828125,52.3681640625,19.8291015625
47.4262451,-69.4091796875,53.2958984375,32.6220703125
47.4582277,-69.0673828125,54.0283203125,34.8193359375
47.48627,-69.6044921875,53.3447265625,31.1572265625
47.5141916,-70.0439453125,50.9033203125,23.8818359375
47.5441874,-71.0693359375,50.6103515625,11.5771484375
47.5772256,-71.4111328125,50.3173828125,0.8837890625
47.6061986,-72.3388671875,48.9013671875,-6.2451171875
47.6387435,-73.9501953125,47.6318359375,-10.0537109375
47.6679188,-74.2919921875,46.8505859375,-10.8837890625
47.7078767,-75.5126953125,46.0693359375,-13.1787109375
47.7288679,-76.4404296875,45.0927734375,-16.3037109375
47.7591104,-77.3681640625,44.2626953125,-20.6982421875
47.7988145,-78.8330078125,43.2861328125,-25.3857421875
47.8168177,-78.5400390625,42.9931640625,-31.2451171875
47.8465082,-75.5615234375,41.6748046875,-35.3466796875
47.8759163,-71.5087890625,41.2353515625,-41.2060546875
47.9282927,-69.9462890625,40.4052734375,-46.3330078125
47.9370655,-68.7744140625,39.7705078125,-51.7529296875
47.9680079,-67.9443359375,41.3818359375,-55.5126953125
47.9972835,-67.7490234375,42.9443359375,-42.2802734375
48.0282852,-68.2861328125,43.8720703125,-9.7119140625
48.068082,-68.7255859375,44.8486328125,16.7529296875
48.0901257,-69.0185546875,45.0439453125,29.9365234375
48.1171244,-69.1650390625,46.4599609375,33.0126953125
48.1497686,-69.2138671875,45.3857421875,29.7412109375
48.1911168,-69.5556640625,44.1162109375,21.8798828125
48.211212,-70.6787109375,43.7744140625,8.8427734375
48.248247,-70.8251953125,43.7744140625,-2.6806640625
48.2696956,-72.2900390625,43.3349609375,-9.0283203125
48.2976781,-73.3154296875,42.9443359375,-10.5908203125
48.3296685,-74.0478515625,43.0908203125,-11.0791015625
48.3678952,-75.0244140625,42.8955078125,-13.2275390625
48.3907632,-75.9033203125,42.5537109375,-16.1572265625
48.4314678,-77.2705078125,41.3818359375,-21.5283203125
48.4481183,-78.5400390625,40.7958984375,-26.2158203125
48.4914559,-78.7841796875,40.3564453125,-32.0263671875
48.5112253,-76.3427734375,39.8681640625,-36.7138671875
48.5451825,-73.1201171875,38.6962890625,-41.2548828125
48.5706349,-70.7275390625,37.8662109375,-46.8701171875
48.6106278,-69.6533203125,38.5986328125,-51.3134765625
48.6323678,-68.2373046875,40.8935546875,-48.4326171875
48.6732373,-68.2861328125,43.0419921875,-23.2373046875
48.6922246,-68.1396484375,43.7744140625,6.4990234375
48.7333329,-69.5556640625,44.4580078125,24.7119140625
48.750244,-69.9462890625,46.3623046875,31.5966796875
48.7924618,-70.2880859375,46.8994140625,30.3759765625
48.8146286,-69.9462890625,46.0205078125,24.0283203125
48.8442153,-70.7763671875,46.3623046875,12.3095703125
48.8839136,-70.6787109375,46.8505859375,-0.7763671875
48.903921,-72.1435546875,47.5341796875,-9.3701171875
48.9446005,-72.8759765625,46.2158203125,-12.6416015625
48.9645439,-73.7060546875,45.9228515625,-12.9345703125
48.992216,-74.4873046875,45.6298828125,-14.1552734375
49.0217851,-75.0732421875,46.0205078125,-16.8408203125
49.0639301,-76.0986328125,45.8251953125,-21.1376953125
49.0838909,-77.5634765625,45.4833984375,-26.1669921875
49.135732,-78.5400390625,44.8486328125,-31.6845703125
49.156212,-78.1982421875,44.4580078125,-36.5185546875
49.1759966,-74.7802734375,44.1650390625,-42.1337890625
49.203234,-71.7041015625,43.5791015625,-47.4072265625
49.2454311,-69.9462890625,44.3603515625,-52.7783203125
49.2633663,-69.4580078125,46.3623046875,-53.2177734375
49.3035503,-68.5791015625,48.3642578125,-32.0751953125
49.3254231,-68.8720703125,49.0966796875,0.2978515625
49.3645845,-69.7021484375,49.0966796875,22.0263671875
49.3843036,-70.7275390625,50.8056640625,31.6943359375
49.4259112,-70.1904296875,51.7333984375,32.5732421875
49.4471524,-70.0439453125,51.2451171875,27.3974609375
49.4858884,-70.1904296875,49.6337890625,18.5107421875
49.5059552,-70.8740234375,51.0009765625,5.0341796875
49.5470158,-71.4111328125,50.8544921875,-4.7314453125
49.5666629,-72.8271484375,50.0244140625,-10.4931640625
49.6080899,-73.6572265625,49.3896484375,-12.2998046875
49.6276797,-74.4873046875,49.2919921875,-13.9111328125
49.6681689,-75.3662109375,49.6826171875,-16.4501953125
49.6867409,-76.3916015625,49.8291015625,-18.7939453125
49.7279159,-77.0751953125,49.2431640625,-24.7021484375
49.7460197,-78.5400390625,48.8037109375,-29.3896484375
49.7875998,-78.4423828125,48.1689453125,-34.2724609375
49.8072926,-76.0009765625,47.5830078125,-39.5458984375
49.8430766,-73.1689453125,46.9482421875,-44.3798828125
49.8708794,-70.4345703125,47.0458984375,-49.8974609375
49.8986523,-68.9697265625,47.9248046875,-54.5849609375
49.9392919,-68.8720703125,49.9267578125,-45.0634765625
49.9623129,-68.0419921875,52.1240234375,-12.9345703125
49.9892683,-68.8232421875,52.6123046875,15.4345703125
50.030771,-68.9208984375,53.5888671875,31.2548828125
50.0486715,-69.7998046875,53.9306640625,36.2841796875
50.0905665,-69.6044921875,53.9794921875,33.9892578125
50.1061978,-69.9462890625,53.7353515625,28.1298828125
50.1445231,-70.5322265625,53.1982421875,16.8505859375
50.1665404,-70.8740234375,53.1982421875,4.7900390625
50.2058396,-71.7041015625,53.2958984375,-3.2177734375
50.2307151,-71.5087890625,52.4658203125,-7.1728515625
50.2873376,-73.7060546875,52.0751953125,-9.2724609375
50.3071572,-74.4873046875,51.6357421875,-11.1767578125
50.3197865,-74.7802734375,51.8798828125,-13.8134765625
50.3592578,-76.0986328125,51.3916015625,-18.1591796875
50.3794103,-77.1728515625,51.1474609375,-22.6513671875
50.4201363,-78.4423828125,50.3173828125,-28.2666015625
50.4447051,-77.3681640625,49.0478515625,-33.3935546875
50.4721158,-74.1943359375,47.7783203125,-38.0810546875
50.5135889,-71.2646484375,46.3134765625,-43.7451171875
50.5340945,-68.8720703125,45.8740234375,-49.7509765625
50.575596,-68.2373046875,47.6806640625,-53.3154296875
50.590105,-67.4560546875,49.2919921875,-39.5458984375
50.631161,-67.0166015625,49.4873046875,-5.5615234375
50.6512533,-67.3095703125,49.3408203125,19.5849609375
50.6904011,-68.3837890625,50.1220703125,33.4521484375
50.712286,-68.8232421875,49.9755859375,36.4794921875
50.741317,-68.8232421875,49.4873046875,33.9892578125
50.781424,-68.7255859375,48.2177734375,26.3720703125
50.802029,-69.1650390625,47.0947265625,15.0439453125
50.8434875,-70.1416015625,47.3876953125,3.4228515625
50.8651494,-70.4345703125,46.4111328125,-4.7314453125
50.9090858,-71.3134765625,45.7275390625,-7.5634765625
50.9238383,-72.3876953125,44.6533203125,-9.3212890625
50.9628351,-73.6083984375,43.3349609375,-10.4443359375
50.9938688,-74.3408203125,43.1884765625,-13.8623046875
51.0142625,-75.8056640625,42.7490234375,-18.2080078125
51.0541135,-76.5380859375,41.4306640625,-23.3349609375
51.0732123,-77.7587890625,40.8935546875,-28.9013671875
51.111384,-77.1728515625,39.7216796875,-34.2724609375
51.1360234,-73.5107421875,39.2333984375,-39.3505859375
51.1733904,-70.6298828125,38.5009765625,-44.0380859375
51.1974315,-68.4814453125,37.2314453125,-49.7509765625
51.2261594,-67.7490234375,39.3310546875,-54.6826171875
51.2645344,-66.6748046875,39.7705078125,-46.1376953125
51.2875777,-66.5283203125,41.7236328125,-15.2294921875
51.3155791,-67.3095703125,42.9931640625,12.1142578125
51.3455999,-68.3349609375,43.3349609375,26.1767578125
51.3879208,-68.8232421875,44.3603515625,31.6943359375
51.4075355,-68.2373046875,43.7744140625,28.4228515625
51.4350824,-68.7744140625,41.7236328125,21.5869140625
51.4842559,-69.5068359375,42.4560546875,9.4287109375
51.5053687,-69.7509765625,43.0419921875,-2.9736328125
51.5273792,-71.1669921875,42.3095703125,-10.2001953125
51.5708606,-71.9482421875,41.3330078125,-13.0810546875
51.5852694,-72.3876953125,40.6982421875,-13.4228515625
51.6192452,-74.1943359375,40.6494140625,-15.2783203125
51.6450522,-75.0732421875,40.6494140625,-17.5732421875
51.6833165,-76.0009765625,39.5751953125,-22.6513671875
51.7076282,-77.1240234375,39.6728515625,-27.7294921875
51.7366804,-78.4423828125,39.0869140625,-33.0029296875
51.7647243,-78.1494140625,38.8916015625,-37.3974609375
51.7987281,-75.8056640625,38.7939453125,-43.0126953125
51.8371833,-72.3876953125,39.2822265625,-47.5537109375
51.8597139,-70.6298828125,40.3076171875,-53.2177734375
51.8883018,-69.0185546875,42.4560546875,-54.8291015625
51.9278005,-68.5791015625,45.2880859375,-34.8095703125
51.947843,-68.5302734375,46.9482421875,-3.6572265625
51.9778576,-69.2138671875,47.8271484375,17.8759765625
52.0084336,-70.2880859375,48.9501953125,27.7392578125
52.0388461,-70.8740234375,49.7314453125,28.5693359375
52.069871,-71.0693359375,49.3408203125,23.7353515625
52.1044132,-70.9228515625,48.9013671875,13.7744140625
52.1288455,-71.1181640625,50.2197265625,0.9326171875
52.158858,-71.7041015625,50.3662109375,-10.3955078125
52.1867125,-72.2900390625,49.8291015625,-14.7412109375
52.2265037,-73.9501953125,49.4384765625,-16.6943359375
52.247504,-74.7802734375,49.1943359375,-18.2568359375
52.2815224,-75.2685546875,50.2197265625,-20.6494140625
52.311528,-76.1474609375,50.0732421875,-23.9697265625
52.3385086,-77.5146484375,49.2431640625,-28.7548828125
52.373666,-78.6865234375,49.1455078125,-34.0771484375
52.4019424,-79.5166015625,48.5595703125,-39.4970703125
52.4345263,-78.6865234375,48.3642578125,-44.8681640625
52.4599496,-75.4638671875,47.7294921875,-49.5068359375
52.4915018,-72.0947265625,47.3876953125,-55.1708984375
52.5235641,-71.1181640625,49.1455078125,-59.9560546875
52.5529696,-69.5556640625,51.0498046875,-53.0224609375
52.5821355,-69.7509765625,53.0517578125,-22.2607421875
52.6151143,-69.7509765625,53.5888671875,6.8408203125
52.6444925,-70.6787109375,55.3955078125,22.3681640625
52.6724928,-70.9228515625,56.0302734375,27.7392578125
52.705472,-71.8017578125,56.2255859375,25.8837890625
52.7344468,-71.4111328125,54.6630859375,18.9501953125
52.7664565,-71.1181640625,54.1259765625,8.0615234375
52.7934731,-72.0458984375,54.8095703125,-4.2431640625
52.8234652,-72.9248046875,55.1513671875,-12.8857421875
52.8564613,-73.8037109375,53.3935546875,-17.0361328125
52.8834661,-74.7802734375,52.7587890625,-18.7939453125
52.9134866,-75.8544921875,52.7587890625,-20.6982421875
52.9443887,-76.3427734375,53.2470703125,-23.2861328125
52.9751098,-77.7099609375,52.9052734375,-27.8271484375
53.00792,-78.7353515625,52.9541015625,-32.8564453125
53.0371025,-79.4189453125,52.8076171875,-38.5205078125
53.0661141,-80.4931640625,51.8798828125,-43.3544921875
53.0920812,-78.1005859375,52.2216796875,-48.3837890625
53.1251027,-74.6826171875,51.9775390625,-53.4130859375
53.1554592,-72.3388671875,51.3916015625,-59.4677734375
53.1880789,-71.2158203125,52.2705078125,-64.5458984375
53.2170916,-70.7275390625,53.7353515625,-62.1533203125
53.24508,-70.3369140625,56.6650390625,-33.5888671875
53.2776257,-69.9462890625,56.9091796875,-1.9482421875
53.3060896,-70.6298828125,58.8623046875,18.3154296875
53.350087,-71.8994140625,59.0576171875,24.9072265625
53.3661314,-72.1923828125,59.0087890625,24.8095703125
53.3971658,-71.7529296875,58.9111328125,18.5107421875
53.42415,-72.2900390625,57.5927734375,8.5498046875
53.4561968,-72.4853515625,59.0087890625,-3.5595703125
53.4961631,-73.4619140625,58.8623046875,-13.3740234375
53.5190518,-74.7314453125,58.0322265625,-18.1591796875
53.5588066,-75.2685546875,57.7392578125,-20.7470703125
53.5771292,-76.6357421875,57.8369140625,-21.5283203125
53.60842,-77.3193359375,57.7880859375,-23.6767578125
53.65058,-78.2958984375,56.1767578125,-28.2666015625
53.6671164,-79.1259765625,56.1279296875,-33.6376953125
53.6991168,-80.5419921875,55.8837890625,-38.9599609375
53.7405217,-81.9091796875,54.9560546875,-44.1357421875
53.7576116,-80.3955078125,53.4912109375,-49.7998046875
53.7885347,-76.7333984375,52.7587890625,-55.3662109375
53.8297239,-73.7548828125,50.7080078125,-60.3955078125
53.8512274,-71.9970703125,50.7080078125,-66.5478515625
53.8903973,-71.2158203125,52.1240234375,-71.3330078125
53.9128377,-70.7763671875,53.8818359375,-61.9580078125
53.9409514,-70.5810546875,54.0771484375,-28.1201171875
53.9823048,-71.0693359375,53.7353515625,2.0068359375
53.9988162,-71.9970703125,53.9794921875,18.6572265625
54.0413503,-72.3388671875,54.7119140625,23.5400390625
54.0622547,-72.0458984375,54.2236328125,20.7568359375
54.1013506,-72.1435546875,52.8076171875,13.8232421875
54.1220672,-73.1689453125,53.1982421875,2.5439453125
54.1638816,-73.3642578125,52.6123046875,-10.2001953125
54.1806371,-74.3896484375,52.0751953125,-18.6962890625
54.222792,-75.6103515625,50.6591796875,-22.9931640625
54.243452,-76.9775390625,49.9755859375,-23.4814453125
54.2835505,-77.9052734375,49.3896484375,-25.2880859375
54.3013001,-78.8818359375,47.5830078125,-28.2666015625
54.3434654,-79.8583984375,47.2900390625,-32.4169921875
54.3635842,-81.4208984375,45.7275390625,-36.9580078125
54.4004573,-82.5439453125,45.4345703125,-42.7685546875
54.4249716,-83.2275390625,44.3115234375,-48.1396484375
54.4666052,-81.3232421875,43.3349609375,-53.3642578125
54.4816211,-77.6611328125,42.3095703125,-57.8076171875
54.5220865,-74.7802734375,41.8701171875,-62.7392578125
54.5439659,-73.6083984375,42.7001953125,-68.6474609375
54.5830292,-72.8759765625,45.1904296875,-70.6982421875
54.6023779,-72.8759765625,46.2646484375,-47.9443359375
54.6574112,-72.1923828125,46.7529296875,-15.1318359375
54.6783348,-73.5107421875,47.4365234375,8.3056640625
54.6948406,-73.9501953125,48.7060546875,16.9970703125
54.7363997,-74.1943359375,48.2666015625,17.8271484375
54.7558994,-74.6337890625,45.8251953125,11.6259765625
54.7983698,-73.9501953125,45.6787109375,0.5419921875
54.8136939,-74.8779296875,45.7763671875,-12.8369140625
54.8555835,-75.6591796875,45.5322265625,-23.9208984375
54.8773932,-76.6357421875,44.9462890625,-28.3642578125
54.9186321,-77.5146484375,45.0927734375,-28.7060546875
54.9350696,-78.3447265625,43.8232421875,-29.9755859375
54.9767622,-79.2724609375,43.6279296875,-31.6845703125
54.9943668,-80.1513671875,42.7490234375,-36.3232421875
55.0329387,-81.7626953125,42.3583984375,-41.5966796875
55.0546506,-82.4951171875,41.9189453125,-45.7470703125
55.0939438,-84.1064453125,41.6748046875,-51.7041015625
55.1145829,-84.0087890625,41.0400390625,-56.8310546875
55.1601267,-81.3232421875,40.4052734375,-61.3232421875
55.1763454,-77.9541015625,40.3076171875,-67.2802734375
55.2121731,-75.7568359375,42.1630859375,-71.8701171875
55.234377,-75.0244140625,44.9462890625,-68.7939453125
55.2691398,-74.2431640625,46.5087890625,-40.4736328125
55.2941984,-74.3408203125,47.5341796875,-10.6884765625
55.329696,-74.7802734375,48.8525390625,9.1357421875
55.3577691,-76.1962890625,49.2431640625,16.6064453125
55.4006119,-76.6845703125,48.8525390625,14.4091796875
55.4214852,-76.0986328125,47.9736328125,6.7919921875
55.4610272,-76.2939453125,47.5830078125,-4.9267578125
55.4736219,-76.4892578125,48.2666015625,-19.0869140625
55.5121123,-77.8076171875,48.4619140625,-28.3154296875
55.5387909,-78.7353515625,46.5087890625,-31.7333984375
55.5811421,-79.4189453125,46.3623046875,-31.8798828125
55.6001771,-80.4931640625,46.3623046875,-33.6865234375
55.6402669,-81.2255859375,46.7041015625,-36.2255859375
55.6622913,-82.4462890625,45.8251953125,-40.1806640625
55.6912612,-82.8369140625,45.4345703125,-45.4541015625
55.7274119,-84.0087890625,45.1904296875,-51.1181640625
55.7476761,-84.9853515625,44.4091796875,-56.6357421875
55.7887836,-84.9365234375,44.0673828125,-61.8603515625
55.8078483,-81.3720703125,43.6279296875,-66.5966796875
55.8475787,-78.6376953125,44.2138671875,-72.4560546875
55.8769504,-76.3916015625,46.3134765625,-74.9951171875
55.8990483,-75.2197265625,47.4365234375,-55.9033203125
55.9402492,-75.2197265625,48.5595703125,-21.2353515625
55.9613086,-74.7802734375,49.6337890625,4.3994140625
55.9999698,-75.7568359375,51.0986328125,16.6552734375
56.0206167,-76.8798828125,50.7568359375,17.6806640625
56.0613283,-77.6611328125,50.2685546875,12.9931640625
56.0789312,-76.8310546875,49.9755859375,4.6435546875
56.1159895,-77.3193359375,50.7568359375,-9.6142578125
56.1417637,-77.2216796875,51.1474609375,-21.2841796875
56.185,-78.4423828125,50.1220703125,-27.5341796875
56.2013691,-79.4189453125,49.6826171875,-30.3173828125
56.2428172,-80.4931640625,50.0244140625,-31.2939453125
56.2634473,-80.8837890625,50.0732421875,-32.5146484375
56.3035486,-82.2998046875,49.5361328125,-35.8837890625
56.3236212,-82.4462890625,48.7548828125,-40.9130859375
56.363881,-83.9111328125,48.9013671875,-46.0888671875
56.3819027,-84.7412109375,47.1435546875,-51.8017578125
56.4231378,-85.4248046875,46.9970703125,-57.0751953125
56.4422144,-83.9111328125,46.4599609375,-62.3974609375
56.4836907,-80.0537109375,45.9228515625,-67.2314453125
56.5041867,-77.4658203125,46.7529296875,-72.2607421875
56.5441432,-76.0498046875,47.7294921875,-75.5810546875
56.563796,-74.9755859375,49.6826171875,-56.2939453125
56.6032344,-74.8291015625,49.4384765625,-20.4541015625
56.625831,-75.0244140625,50.5126953125,6.1083984375
56.6648822,-75.8056640625,51.4892578125,18.4619140625
56.6847956,-76.5380859375,51.9775390625,20.4150390625
56.7265213,-76.4404296875,50.9521484375,16.1669921875
56.7498795,-77.1240234375,49.0478515625,6.8408203125
56.7750639,-76.3916015625,49.4384765625,-6.4404296875
56.8129374,-77.0751953125,49.2431640625,-17.7685546875
56.8350214,-78.0029296875,47.5830078125,-25.2392578125
56.8771911,-78.7841796875,46.5576171875,-27.3876953125
56.8935925,-79.4677734375,46.0693359375,-29.0478515625
56.9335637,-80.5419921875,45.0439453125,-30.1708984375
56.9541011,-81.5185546875,44.3603515625,-33.3447265625
56.9965273,-81.7626953125,43.1884765625,-36.8603515625
57.0174184,-83.4228515625,42.2607421875,-41.9384765625
57.0448892,-84.6435546875,41.4794921875,-47.0166015625
57.0843818,-85.1318359375,40.6494140625,-51.8505859375
57.1053782,-83.9599609375,39.1845703125,-56.8798828125
57.1453591,-80.2490234375,38.6474609375,-62.4462890625
57.1676642,-76.7822265625,38.7451171875,-67.2802734375
57.206775,-74.9267578125,40.4052734375,-70.7470703125
57.2238417,-74.1943359375,42.4560546875,-51.2646484375
57.2653504,-74.3408203125,42.6513671875,-17.0361328125
57.2852113,-74.0478515625,42.9931640625,8.1591796875
57.3258653,-74.8291015625,43.3837890625,19.6826171875
57.348322,-75.6103515625,44.1650390625,22.1728515625
57.3776949,-75.7568359375,42.9931640625,16.2158203125
57.4097218,-76.0009765625,42.3583984375,7.3291015625
57.4395834,-76.2939453125,42.2119140625,-6.5380859375
57.4667682,-76.5380859375,42.2119140625,-17.6708984375
57.4987798,-77.3193359375,41.2353515625,-23.5302734375
57.5277546,-77.7587890625,39.9658203125,-24.8486328125
57.5567512,-78.7353515625,39.3798828125,-25.5322265625
57.5903139,-79.7119140625,38.7451171875,-27.3388671875
57.6193908,-80.1513671875,38.1103515625,-29.9755859375
57.6457485,-81.3720703125,37.3779296875,-35.1513671875
57.6835457,-82.9345703125,36.4501953125,-40.7177734375
57.7088529,-83.1787109375,35.6201171875,-45.0634765625
57.7412332,-84.6923828125,34.7900390625,-50.3857421875
57.7712497,-83.8134765625,34.5947265625,-55.8056640625
57.7979608,-80.1025390625,33.8134765625,-60.5419921875
57.8319972,-77.2705078125,35.6689453125,-65.4248046875
57.8609973,-75.1220703125,36.7431640625,-63.3251953125
57.8895815,-74.1943359375,38.3544921875,-35.2001953125
57.9219836,-74.2431640625,39.1845703125,-3.3154296875
57.9490191,-74.2431640625,39.9658203125,15.7763671875
57.9800276,-74.9755859375,40.8935546875,22.1240234375
58.0129758,-75.4638671875,40.1611328125,21.0009765625
58.0419813,-75.7080078125,38.7451171875,14.0185546875
58.0681554,-75.6103515625,39.6728515625,1.9091796875
58.1165805,-75.4638671875,41.3330078125,-12.0556640625
58.1296538,-75.9033203125,41.1376953125,-20.7958984375
58.1616753,-76.7333984375,39.9169921875,-23.6279296875
58.1906403,-76.9775390625,40.2587890625,-23.9208984375
58.2371289,-78.4423828125,41.3330078125,-24.5068359375
58.2516217,-79.3212890625,40.9912109375,-26.8505859375
58.2795703,-80.3466796875,40.7470703125,-30.9521484375
58.3125878,-80.9326171875,41.4306640625,-37.1044921875
58.3403726,-82.8369140625,40.6494140625,-41.8896484375
58.3752075,-83.0322265625,39.9169921875,-47.4072265625
58.3984728,-84.3017578125,39.6240234375,-52.3876953125
58.4352296,-82.5439453125,40.0634765625,-57.1240234375
58.4635661,-78.4912109375,40.3564453125,-62.7880859375
58.4915229,-76.3427734375,41.9189453125,-66.0595703125
58.520438,-74.3896484375,44.4580078125,-52.7783203125
58.5495063,-73.7548828125,45.6787109375,-18.8427734375
58.6002521,-73.5107421875,47.4853515625,8.3056640625
58.6105022,-73.7060546875,48.5595703125,22.3193359375
58.6572182,-75.0244140625,50.0244140625,25.0537109375
58.6762224,-75.9033203125,49.4384765625,21.0986328125
58.703178,-75.1708984375,48.6572265625,11.9677734375
58.7317113,-75.4150390625,49.9267578125,-1.0693359375
58.7815322,-75.4638671875,50.2685546875,-13.7158203125
58.7945675,-75.9521484375,49.9267578125,-20.5517578125
58.8420447,-76.7333984375,49.4384765625,-23.2373046875
58.8571085,-76.9287109375,49.4873046875,-23.9697265625
58.883051,-78.5888671875,48.9013671875,-25.4833984375
58.9170636,-79.5166015625,49.5361328125,-28.5107421875
58.9593021,-80.1513671875,49.3408203125,-32.8564453125
58.9793311,-81.6162109375,48.9013671875,-38.3740234375
59.017828,-81.9580078125,48.3154296875,-44.0380859375
59.0378924,-83.3740234375,47.6806640625,-49.0185546875
59.07033,-83.3740234375,47.7783203125,-53.9013671875
59.1123333,-81.1279296875,47.2412109375,-59.5166015625
59.1458402,-77.4169921875,48.5595703125,-64.5947265625
59.1579318,-74.9755859375,50.7568359375,-66.3037109375
59.202416,-73.6083984375,53.3447265625,-42.8662109375
59.2166615,-73.0712890625,54.5654296875,-8.2470703125
59.2584092,-72.9736328125,54.6142578125,15.3369140625
59.2784791,-73.5107421875,56.5673828125,26.0302734375
59.3128168,-74.2431640625,56.5185546875,27.4462890625
59.3365168,-74.9267578125,56.1767578125,21.6845703125
59.3810915,-75.1220703125,56.4208984375,11.5771484375
59.400109,-74.6826171875,56.9580078125,-1.5576171875
59.4401688,-75.0732421875,56.8115234375,-12.3974609375
59.4602136,-75.8544921875,56.4697265625,-18.6962890625
59.4978813,-76.4404296875,55.3955078125,-20.6005859375
59.5181987,-77.2216796875,55.1025390625,-22.0654296875
59.5622478,-78.0517578125,54.5654296875,-23.7744140625
59.5855792,-78.9794921875,53.8330078125,-26.9482421875
59.6257977,-80.0537109375,53.4423828125,-32.0751953125
59.6344684,-80.8349609375,51.8310546875,-37.9833984375
59.6794762,-81.7626953125,51.8310546875,-43.0615234375
59.7010461,-83.0322265625,50.9521484375,-48.0419921875
59.7398769,-83.1298828125,50.0732421875,-53.5595703125
59.7607183,-79.8583984375,48.5107421875,-58.6376953125
59.8025702,-76.2451171875,47.9248046875,-63.9599609375
59.822709,-73.9990234375,50.6591796875,-69.4287109375
59.8631854,-72.8759765625,52.8564453125,-59.6142578125
59.8848244,-72.9736328125,53.0029296875,-25.0927734375
59.9253294,-72.2900390625,53.6376953125,6.0595703125
59.944071,-72.6318359375,55.2490234375,23.2470703125
59.9851803,-73.7548828125,55.4931640625,27.8369140625
60.0044145,-73.9990234375,54.7119140625,25.8349609375
60.0468553,-73.2666015625,52.9541015625,17.4853515625
60.0628711,-73.9501953125,52.4169921875,5.1806640625
60.1010752,-74.4873046875,51.5869140625,-8.4912109375
60.1231078,-75.0732421875,51.8798828125,-16.3037109375
60.1667666,-75.4150390625,51.0009765625,-19.1845703125
60.1863407,-76.8798828125,49.6826171875,-20.5517578125
60.2266692,-78.0517578125,48.2666015625,-21.7236328125
60.2485173,-78.7841796875,47.6806640625,-23.5791015625
60.2875243,-79.4189453125,46.6064453125,-28.1689453125
60.3109043,-80.4931640625,45.5322265625,-33.1494140625
60.3351288,-81.5185546875,44.4580078125,-38.8134765625
60.3731298,-82.4951171875,44.4580078125,-43.8427734375
60.3943212,-83.6181640625,43.6279296875,-48.9697265625
60.4314595,-81.8603515625,42.9931640625,-53.2666015625
60.4500897,-78.1494140625,41.6748046875,-58.2958984375
60.4907231,-75.2685546875,42.6513671875,-63.0810546875
60.5132941,-73.7548828125,44.5068359375,-67.0849609375
60.553155,-72.8759765625,45.8251953125,-49.7021484375
60.5742924,-72.8271484375,47.1923828125,-15.0341796875
60.616225,-73.2177734375,48.5107421875,10.7470703125
60.6353212,-73.2177734375,47.8759765625,23.3935546875
60.6761047,-74.3896484375,48.0712890625,25.1025390625
60.6979223,-74.6337890625,47.0947265625,19.7314453125
60.7389501,-74.5361328125,46.9970703125,9.2822265625
60.7593959,-74.6826171875,47.2412109375,-5.9033203125
60.7993937,-75.2197265625,46.6064453125,-17.6708984375
60.8158986,-75.4150390625,45.8740234375,-22.2119140625
60.8570175,-77.1728515625,45.4833984375,-22.9443359375
60.8763279,-77.8076171875,45.3857421875,-22.8955078125
60.9180012,-78.8330078125,44.7509765625,-24.1162109375
60.9392044,-79.6142578125,44.4091796875,-26.9482421875
60.9792458,-80.9326171875,43.0908203125,-32.0751953125
60.9992984,-81.3720703125,42.4560546875,-37.4951171875
61.0394304,-82.0556640625,42.0654296875,-42.8173828125
61.0600266,-83.3251953125,41.4306640625,-47.2607421875
61.1017521,-84.4482421875,42.1142578125,-52.3388671875
61.1163295,-82.6904296875,41.4794921875,-57.4169921875
61.1585293,-78.8330078125,43.7255859375,-62.3486328125
61.1798191,-76.3916015625,45.8740234375,-61.2255859375
