Timestamp,PPG_Forehead,PPG_Earlobe,PPG_Finger
0.00660689999999997,0.185546875,0.185546875,0.185546875
0.00966179999999994,0.185546875,0.185546875,0.185546875
0.0154483999999999,0.185546875,0.185546875,0.185546875
0.0194402,0.185546875,0.185546875,0.185546875
0.0234196999999998,0.185546875,0.185546875,0.185546875
0.0268853,0.185546875,0.185546875,0.185546875
0.0282208000000002,131.0888671875,86.5576171875,83.4326171875
0.0308256,20.8251953125,-30.9912109375,-38.0126953125
0.0318844,21.9970703125,-30.8935546875,-49.2919921875
0.0331896,20.7275390625,-32.2607421875,-63.5498046875
0.0341779,20.3857421875,-32.6513671875,-76.2939453125
0.0362681999999999,19.8486328125,-32.7490234375,-88.9404296875
0.0373115999999998,20.0439453125,-33.3837890625,-98.2666015625
0.0385955999999998,20.2880859375,-33.3837890625,-106.7626953125
0.0400201,18.4814453125,-34.8486328125,-114.1357421875
0.0412401999999998,18.8232421875,-36.3623046875,-110.6689453125
0.0426913,17.7001953125,-33.9697265625,-38.0126953125
0.0436516999999998,17.5048828125,-27.2314453125,16.7724609375
0.0462691,16.0888671875,-22.1533203125,36.6455078125
0.0474394999999999,15.2099609375,-20.6396484375,40.9423828125
0.0490621,15.3564453125,-20.7861328125,37.0849609375
0.0501176000000001,13.6962890625,-20.1513671875,31.9091796875
0.0512400999999998,13.6962890625,-18.7353515625,26.4404296875
0.0527842000000001,11.9384765625,-18.0029296875,14.2333984375
0.0537564000000001,11.7431640625,-18.4912109375,-1.1474609375
0.0557660000000002,13.6474609375,-18.3447265625,-10.9619140625
0.0568355,15.6982421875,-18.3935546875,-12.5732421875
0.0583184000000001,19.5556640625,-18.8818359375,-13.0126953125
0.0593442999999998,20.6787109375,-19.6630859375,-15.2099609375
0.0607777999999999,21.7529296875,-20.0537109375,-22.6318359375
0.0623513,22.7294921875,-20.4931640625,-33.6669921875
0.0634961000000001,23.3154296875,-21.2744140625,-47.4365234375
0.0654325999999998,22.7783203125,-22.6416015625,-60.7177734375
0.0665303000000002,21.8505859375,-24.3994140625,-73.3642578125
0.0679446000000001,21.8994140625,-24.6923828125,-84.3017578125
0.069194,20.8740234375,-25.5224609375,-94.6533203125
0.0703421999999998,21.2158203125,-26.0107421875,-101.6845703125
0.0718239000000001,20.2880859375,-26.7919921875,-109.0576171875
0.0727850999999999,19.6533203125,-27.7685546875,-102.3193359375
0.0743996,19.7021484375,-25.3759765625,-25.8544921875
0.0753805999999999,17.6513671875,-18.8818359375,24.0478515625
0.0776786999999999,17.3583984375,-14.5361328125,44.4091796875
0.0789539000000001,16.2353515625,-12.6806640625,48.6083984375
0.0800738999999999,14.6240234375,-13.3154296875,45.8740234375
0.0815082999999999,14.4775390625,-12.0458984375,42.2119140625
0.0825189000000002,13.5498046875,-11.4599609375,38.1103515625
0.0842046000000001,13.3056640625,-12.0458984375,27.0263671875
0.0852053000000002,12.9150390625,-12.5341796875,12.0849609375
0.0866053999999998,13.6962890625,-13.5595703125,1.4892578125
0.0878930000000002,16.1865234375,-14.7802734375,-1.7822265625
0.0890086000000001,19.2138671875,-15.1708984375,-2.5146484375
0.0904421000000002,20.9716796875,-16.3916015625,-5.6884765625
0.0914096999999998,21.5576171875,-18.7353515625,-14.1845703125
0.0927509999999998,23.5595703125,-19.6630859375,-26.0498046875
0.0936762999999998,23.3642578125,-20.5419921875,-40.6494140625
0.0945892000000002,23.6083984375,-22.1044921875,-53.8330078125
0.0957465000000002,22.7783203125,-23.9111328125,-66.7724609375
0.0968205000000002,21.3623046875,-25.6201171875,-78.2470703125
0.0978050000000001,21.9482421875,-27.1337890625,-87.1337890625
0.0987282,21.4111328125,-28.3544921875,-96.4111328125
0.0999034000000001,21.2646484375,-31.0400390625,-103.8818359375
0.1008382,20.0439453125,-32.7490234375,-86.2060546875
0.1017457,18.8232421875,-30.1611328125,-8.9111328125
0.1026605,18.8720703125,-25.2294921875,30.9814453125
0.1035768,17.4560546875,-21.9580078125,45.7275390625
0.1044929,16.9189453125,-22.2509765625,46.3623046875
0.1054229,15.0634765625,-22.3486328125,42.0654296875
0.1063275,14.7216796875,-21.7138671875,37.0361328125
0.1072331,13.6962890625,-22.2021484375,30.0048828125
0.1081835,12.6220703125,-22.5927734375,14.7216796875
0.1090879,12.8173828125,-24.4970703125,-0.4638671875
0.1099964,12.4755859375,-25.4248046875,-7.5927734375
0.1109124,16.0888671875,-25.5712890625,-8.6181640625
0.1119874,18.3349609375,-26.8408203125,-8.8623046875
0.1129089,19.6533203125,-28.7451171875,-13.3544921875
0.1138451,21.6552734375,-30.1611328125,-22.0458984375
0.1147585,20.8251953125,-31.8701171875,-34.0087890625
0.1157796,22.3876953125,-33.1884765625,-47.7783203125
0.1167034,20.8740234375,-34.9462890625,-60.4248046875
0.1176364,21.0205078125,-36.8505859375,-72.3388671875
0.1186482,20.2880859375,-38.9501953125,-83.3740234375
0.1195664,19.3115234375,-40.2197265625,-91.9189453125
0.1204704,20.2880859375,-42.4658203125,-99.0478515625
0.1213732,19.3115234375,-44.1748046875,-77.9052734375
0.1222948,19.2626953125,-40.9033203125,-4.0771484375
0.1232036,17.0166015625,-34.3115234375,30.2001953125
0.1241124,16.4306640625,-31.8701171875,42.9443359375
0.125092,15.9912109375,-33.9208984375,41.6259765625
0.1261893,13.8427734375,-33.4814453125,35.8642578125
0.1271632,13.8916015625,-32.0166015625,30.2490234375
0.1280793,12.4755859375,-32.6513671875,19.4091796875
0.1291528,12.5732421875,-33.7744140625,3.3935546875
0.1301144,11.9873046875,-34.7021484375,-6.5673828125
0.1310475,12.7685546875,-35.2392578125,-8.0810546875
0.1319508,16.2841796875,-35.2880859375,-8.0322265625
0.1328546,18.1884765625,-35.7763671875,-8.4228515625
0.133772,19.8974609375,-36.1669921875,-14.3310546875
0.1346769,19.3603515625,-36.8505859375,-24.0478515625
0.1355864,20.9716796875,-36.6552734375,-35.7177734375
0.1365,21.0205078125,-36.5087890625,-48.6572265625
0.1374032,19.4580078125,-36.3623046875,-61.6943359375
0.1383151,19.9951171875,-37.3876953125,-71.9970703125
0.1392278,18.7744140625,-37.8759765625,-81.8115234375
0.1401359,19.7021484375,-38.5595703125,-90.6005859375
0.1410456,18.9697265625,-39.2431640625,-91.4794921875
0.1419916,18.4814453125,-38.3642578125,-36.4013671875
0.1429068,18.5302734375,-32.4560546875,20.9716796875
0.1439205,17.1630859375,-25.6201171875,43.8232421875
0.1449043,17.4072265625,-24.3017578125,50.9521484375
0.1458545,16.0400390625,-24.1552734375,47.9736328125
0.1467679,15.2587890625,-22.7392578125,45.2392578125
0.1477744,13.5009765625,-20.6884765625,41.1376953125
0.1486807,13.5986328125,-20.6396484375,30.5908203125
0.1495994,12.9150390625,-22.0556640625,15.5517578125
0.1505063,11.8896484375,-22.5439453125,8.3251953125
0.1514149,15.0146484375,-22.9345703125,7.7880859375
0.1523376,16.5283203125,-22.2021484375,7.6904296875
0.1532438,19.9462890625,-22.8369140625,5.4443359375
0.1541561,21.2646484375,-23.6669921875,-1.6845703125
0.1550756,21.4111328125,-23.7646484375,-11.9873046875
0.1560832,22.7783203125,-24.6923828125,-23.9501953125
0.1571872,21.7529296875,-24.6923828125,-36.6455078125
0.1581137,22.0947265625,-25.0341796875,-48.6083984375
0.1590308,21.6064453125,-26.2060546875,-58.0322265625
0.1599575,20.8740234375,-26.4013671875,-67.6513671875
0.1609541,21.3134765625,-27.4755859375,-76.1474609375
0.1618862,20.2880859375,-29.2822265625,-78.1494140625
0.1628098,20.4833984375,-28.5498046875,-24.6337890625
0.1637276,19.0673828125,-22.7392578125,30.7861328125
0.1646349,18.4814453125,-17.7099609375,56.2744140625
0.1655343,17.7001953125,-14.4384765625,66.1865234375
0.166441,16.6259765625,-13.6083984375,67.3583984375
0.1673536,15.9912109375,-11.9970703125,66.8212890625
0.1682595,14.4775390625,-10.5322265625,65.1611328125
0.1691812,14.2822265625,-9.6533203125,58.6181640625
0.1700849,13.2080078125,-9.8974609375,45.9716796875
0.1709965,13.2080078125,-10.6787109375,36.3525390625
0.1719365,14.0380859375,-11.7041015625,32.5439453125
0.1729584,16.8212890625,-11.3134765625,33.0322265625
0.1738721,20.2880859375,-11.4111328125,31.4208984375
0.1749264,21.4111328125,-12.8759765625,25.2197265625
0.1762243,23.4130859375,-13.9501953125,16.2841796875
0.1773683,23.9501953125,-14.6826171875,4.4677734375
0.1785614,24.3408203125,-15.1220703125,-6.9580078125
0.1798418,24.8779296875,-16.8798828125,-18.3349609375
0.1809983,23.8037109375,-18.0517578125,-28.4423828125
0.1822129,23.4130859375,-18.1494140625,-36.5478515625
0.183395,22.7783203125,-19.1748046875,-44.6533203125
0.1846541,22.5341796875,-20.4443359375,-51.8310546875
0.1858807,22.2412109375,-20.9326171875,-37.9638671875
0.2205552,20.1904296875,-18.9306640625,24.4384765625
0.2411122,20.4833984375,-12.6806640625,59.3994140625
0.2852469,19.3603515625,-8.4814453125,78.1494140625
0.3052382,18.4814453125,-7.2119140625,83.0322265625
0.3424697,17.3095703125,-6.9677734375,82.9345703125
0.3636443,15.6982421875,-5.5029296875,82.7880859375
0.4045648,16.1865234375,-5.8935546875,79.4189453125
0.4236295,14.6240234375,-5.1611328125,68.6767578125
0.4679729,14.1357421875,-7.1630859375,56.8603515625
0.4860146,13.7451171875,-8.6767578125,49.3408203125
0.5240829,16.6748046875,-9.6533203125,48.5595703125
0.5441869,19.2626953125,-10.9228515625,47.5830078125
0.5863532,20.8251953125,-12.6318359375,44.1162109375
0.6016398,22.9736328125,-14.4384765625,35.8154296875
0.6563029,23.2177734375,-17.2705078125,25.9521484375
0.6761053,25.2685546875,-18.1494140625,13.5009765625
0.6897913,24.8779296875,-20.4931640625,1.7822265625
0.7443858,24.3408203125,-22.5439453125,-8.8134765625
0.7641055,24.0478515625,-24.9365234375,-18.3837890625
0.7992516,22.9248046875,-26.3525390625,-26.6845703125
0.8193046,23.3154296875,-27.8662109375,-34.2529296875
0.8542064,22.4365234375,-29.9658203125,-41.7236328125
0.8743181,22.2900390625,-32.2607421875,-35.5712890625
0.917411,21.3623046875,-30.6494140625,20.8740234375
0.9363675,20.3857421875,-25.4248046875,59.5458984375
0.9735363,18.8720703125,-22.1533203125,79.1748046875
0.9935304,17.5048828125,-20.3955078125,84.4970703125
1.03666,16.6748046875,-19.7119140625,83.5205078125
1.056865,15.2587890625,-19.5654296875,81.2744140625
1.0969249,14.9169921875,-19.5654296875,77.8564453125
1.1167892,14.3798828125,-19.7607421875,66.3818359375
1.1568465,12.4267578125,-21.2255859375,54.4189453125
1.1779384,13.0126953125,-22.9345703125,47.8271484375
1.2149683,13.5986328125,-24.5947265625,48.0712890625
1.2358636,17.3583984375,-25.3271484375,48.3642578125
1.2779609,19.0673828125,-27.8662109375,44.6044921875
1.2969356,21.3134765625,-28.9892578125,37.6708984375
1.3393336,23.0712890625,-30.1611328125,27.1728515625
1.361155,22.2412109375,-32.5537109375,15.7470703125
1.3972194,24.3896484375,-33.7255859375,5.2490234375
1.4172022,22.6318359375,-34.9951171875,-5.2978515625
1.4603088,22.0458984375,-36.0205078125,-13.4521484375
1.4752912,21.7041015625,-37.3876953125,-20.7763671875
1.507355,21.5576171875,-38.9990234375,-28.9794921875
1.5504486,21.2158203125,-40.8056640625,-32.8857421875
1.5622316,20.2392578125,-42.0751953125,1.0009765625
1.5963001,19.7509765625,-36.6064453125,47.9248046875
1.6404306,17.8955078125,-30.9423828125,73.8037109375
1.6592921,17.3583984375,-29.5751953125,83.0810546875
1.7024671,16.3818359375,-29.9658203125,83.0810546875
1.7163105,14.1845703125,-28.5009765625,80.8349609375
1.7493402,15.0146484375,-26.4013671875,77.9541015625
1.7783373,13.2568359375,-26.2548828125,70.3857421875
1.8112847,13.1591796875,-27.4755859375,57.2998046875
1.8413592,12.0849609375,-28.7939453125,50.9033203125
1.8673386,12.0361328125,-28.5009765625,51.0009765625
1.8975327,15.3076171875,-28.7939453125,51.3916015625
1.9295842,18.0908203125,-29.2822265625,49.8291015625
1.9565566,19.8974609375,-29.3798828125,45.1904296875
1.9904575,20.7275390625,-30.3564453125,37.2314453125
2.0203961,22.6318359375,-30.8447265625,26.8798828125
2.0473966,23.2666015625,-31.5771484375,17.6513671875
2.0916918,21.5576171875,-32.0166015625,6.8115234375
2.1099062,21.9482421875,-31.9189453125,-2.2705078125
2.1378148,20.6298828125,-32.5537109375,-9.7412109375
2.1709665,21.4111328125,-33.4814453125,-16.1376953125
2.1977518,21.3623046875,-34.1162109375,-22.5341796875
2.2309148,19.8486328125,-34.9462890625,-27.3193359375
2.2617828,19.7021484375,-35.7275390625,10.3759765625
2.2897964,18.3349609375,-29.6728515625,56.1767578125
2.3167729,17.9443359375,-23.3251953125,81.7626953125
2.3507512,15.9423828125,-21.0302734375,90.4541015625
2.3797775,15.8935546875,-21.4697265625,92.4072265625
2.4128486,14.4775390625,-20.7373046875,90.9423828125
2.4417938,13.3544921875,-18.5888671875,90.6982421875
2.4698866,13.5498046875,-17.1240234375,85.9130859375
2.5028341,11.3525390625,-17.1728515625,75.4150390625
2.5289542,12.0361328125,-17.9052734375,67.3583984375
2.5609567,11.4501953125,-19.0771484375,64.0869140625
2.5929004,14.0380859375,-19.4677734375,64.5751953125
2.6190036,17.7978515625,-19.5654296875,63.4033203125
2.655044,20.0927734375,-20.0048828125,59.2529296875
2.6829011,22.0458984375,-20.6884765625,52.4169921875
2.7117623,22.2900390625,-21.9091796875,42.9443359375
2.7427453,23.7548828125,-22.2509765625,33.7646484375
2.7727355,23.3154296875,-22.9833984375,22.5341796875
2.8018495,22.4365234375,-23.1298828125,13.9404296875
2.8508192,23.1201171875,-23.9599609375,5.6396484375
2.8723645,21.1181640625,-24.8876953125,-1.5380859375
2.8893398,21.6064453125,-25.7177734375,-8.9599609375
2.9428226,20.6298828125,-27.0849609375,-14.7705078125
2.961834,20.3857421875,-27.0849609375,-15.0146484375
2.985884,19.9462890625,-26.4990234375,33.2763671875
3.0146018,17.3583984375,-20.0048828125,73.0224609375
3.0429588,17.2607421875,-15.4638671875,93.2861328125
3.0989595,15.8935546875,-12.1435546875,100.3173828125
3.1189991,15.0634765625,-11.7041015625,102.5146484375
3.1349457,14.1357421875,-9.9462890625,103.0029296875
3.1840038,13.2568359375,-8.6279296875,102.6123046875
3.2028561,13.0615234375,-7.2119140625,97.7783203125
3.225814,11.8408203125,-7.3095703125,87.7685546875
3.2729219,11.3525390625,-8.0908203125,80.1513671875
3.2923131,11.0595703125,-7.8955078125,77.1240234375
3.3152903,14.5751953125,-8.1396484375,76.6845703125
3.3616476,17.1142578125,-9.0185546875,75.3173828125
3.3818887,18.4814453125,-9.6044921875,70.7763671875
3.4349476,21.1669921875,-11.0205078125,62.7197265625
3.4383611,21.1181640625,-11.8017578125,53.5888671875
3.4699892,23.6572265625,-12.5341796875,42.5537109375
3.5149773,22.8759765625,-13.6572265625,31.2744140625
3.5350216,21.7529296875,-15.5615234375,20.7763671875
3.5720825,21.9482421875,-16.5869140625,12.8662109375
3.5920554,19.9951171875,-18.2470703125,4.5654296875
3.6300882,21.4111328125,-20.9814453125,-3.1494140625
3.6511914,20.5322265625,-22.7392578125,-11.4013671875
3.6944108,19.7998046875,-23.7158203125,-17.1630859375
3.7133185,18.9697265625,-24.7900390625,11.9384765625
3.7523959,17.6025390625,-20.2978515625,63.0615234375
3.7726341,16.7724609375,-15.7568359375,90.6005859375
3.813541,14.8193359375,-13.6083984375,99.6337890625
3.8346066,14.7216796875,-13.7060546875,100.7080078125
3.8736102,12.9150390625,-12.4853515625,100.1220703125
3.8927555,11.8408203125,-12.8271484375,98.5595703125
3.9365227,11.5478515625,-12.4853515625,95.1416015625
3.9553433,9.9853515625,-13.6083984375,85.4248046875
3.9934731,9.8388671875,-15.8544921875,76.0986328125
4.014462,8.8134765625,-18.2470703125,69.9462890625
4.0545629,11.1572265625,-19.4677734375,68.5791015625
4.0746405,13.5986328125,-20.7861328125,67.8955078125
4.1160664,16.8212890625,-22.0068359375,64.1357421875
4.1361735,19.2138671875,-23.7646484375,57.4462890625
4.1751968,19.1650390625,-24.8388671875,46.4111328125
4.1951638,21.0693359375,-27.2314453125,36.1083984375
4.2372872,21.4111328125,-29.2822265625,24.5361328125
4.262232,20.5322265625,-31.2841796875,13.5498046875
4.2801029,20.2880859375,-32.3583984375,3.3935546875
4.3273892,19.0185546875,-34.7509765625,-4.9560546875
4.3410943,18.9697265625,-36.3134765625,-11.5478515625
4.3862402,18.6767578125,-37.4853515625,-19.8974609375
4.4061521,18.4326171875,-39.9267578125,-25.1220703125
4.4462835,16.4794921875,-40.2685546875,15.9423828125
4.467284,16.1865234375,-33.8720703125,63.4033203125
4.510368,14.2822265625,-29.5263671875,85.9619140625
4.5291938,13.3056640625,-29.6728515625,92.5048828125
4.5654054,13.2080078125,-29.6728515625,90.2587890625
4.585263,11.0595703125,-29.2333984375,87.0361328125
4.6434467,11.3525390625,-28.5009765625,83.5693359375
4.646867,10.0830078125,-28.5986328125,76.7822265625
4.6724049,9.0087890625,-30.7958984375,65.1123046875
4.7003637,8.5693359375,-32.8955078125,57.5439453125
4.7503321,6.6162109375,-33.6767578125,55.3466796875
4.7632047,9.4970703125,-34.0185546875,55.6396484375
4.7925183,12.6708984375,-35.1416015625,54.3212890625
4.852516,15.7958984375,-35.6298828125,49.1455078125
4.8826567,16.9677734375,-35.8740234375,40.6982421875
4.8868578,17.9931640625,-36.8017578125,29.6630859375
4.929508,18.5791015625,-37.4853515625,18.0908203125
4.9506184,18.2373046875,-38.4619140625,6.6162109375
4.9895667,17.7001953125,-39.4873046875,-3.3935546875
5.010518,16.2353515625,-39.8779296875,-11.9873046875
5.0325515,16.6259765625,-41.2939453125,-19.8486328125
5.0668082,16.7236328125,-42.7587890625,-28.3447265625
5.0947102,15.6494140625,-43.6376953125,-29.5654296875
5.1227549,15.9912109375,-42.4169921875,21.4111328125
5.1738841,13.9892578125,-35.1416015625,65.9423828125
5.1937475,14.0380859375,-30.2099609375,87.0849609375
5.2308715,12.0849609375,-28.7451171875,92.7001953125
5.2516864,11.4013671875,-28.4521484375,90.7470703125
5.292958,11.3037109375,-26.7431640625,88.7939453125
5.3120637,9.6923828125,-24.4482421875,85.5224609375
5.3339787,9.7900390625,-24.1064453125,78.0517578125
5.3640694,8.4228515625,-24.4970703125,66.5771484375
5.3970256,7.9833984375,-25.5712890625,58.6669921875
5.4250858,7.2998046875,-25.3271484375,56.1279296875
5.4623923,9.1064453125,-25.6201171875,56.4697265625
5.4865203,12.7197265625,-26.3037109375,54.6630859375
5.5177595,14.3310546875,-26.2060546875,48.8037109375
5.5463614,16.8212890625,-25.6689453125,39.2822265625
5.5953791,16.6748046875,-27.0361328125,29.1259765625
5.615328,17.9443359375,-27.5732421875,17.5537109375
5.6532939,18.5302734375,-28.3056640625,5.6396484375
5.6796168,17.1142578125,-29.1357421875,-6.0302734375
5.6958426,17.5048828125,-29.2822265625,-14.5751953125
5.7285532,17.3095703125,-29.7705078125,-22.7783203125
5.7583777,16.7724609375,-30.8935546875,-31.0302734375
5.7903613,16.3818359375,-32.3095703125,-37.7685546875
5.8325079,15.7470703125,-31.7724609375,-3.9306640625
5.8524219,14.9169921875,-26.1083984375,55.1513671875
5.8946251,14.3798828125,-20.0048828125,85.7666015625
5.9146535,13.5986328125,-16.9287109375,97.0458984375
5.9398926,11.2548828125,-16.7822265625,99.8291015625
5.9889569,11.0107421875,-14.9267578125,97.7294921875
6.008404,10.5224609375,-13.7548828125,95.4833984375
6.0443891,8.7158203125,-12.5341796875,91.8212890625
6.0644278,9.0576171875,-12.5830078125,81.2255859375
6.087364,6.9580078125,-13.3642578125,70.3857421875
6.1165663,7.6416015625,-13.6083984375,64.5751953125
6.1517523,7.6904296875,-13.3642578125,63.5498046875
6.1811608,10.6201171875,-13.5107421875,63.4033203125
6.2132487,14.7705078125,-14.7314453125,58.8623046875
6.2422159,16.2353515625,-15.2685546875,50.3662109375
6.2701657,17.8955078125,-16.5380859375,38.9404296875
6.3193245,18.7255859375,-17.9052734375,26.8798828125
6.3301926,19.1162109375,-18.4912109375,14.4287109375
6.3782423,19.2626953125,-19.1748046875,2.7587890625
6.3973442,18.4326171875,-20.6396484375,-7.4462890625
6.4204902,18.3349609375,-20.5908203125,-16.6259765625
6.4724219,17.4560546875,-21.8603515625,-24.4384765625
6.4830853,17.8466796875,-22.7880859375,-31.9091796875
6.5113681,16.3330078125,-22.9345703125,-10.2783203125
6.5462131,16.6748046875,-18.2470703125,52.9052734375
6.6003186,15.9423828125,-12.2900390625,86.4990234375
6.6061137,13.5009765625,-9.4580078125,101.5380859375
6.6363901,13.2568359375,-7.6513671875,104.4189453125
6.6621697,11.7431640625,-7.5537109375,103.1494140625
6.6922312,11.4990234375,-6.4794921875,102.3193359375
6.7242911,10.3759765625,-6.2841796875,98.5595703125
6.7522278,9.1552734375,-6.8212890625,88.4033203125
6.786439,8.7158203125,-7.9443359375,76.1962890625
6.8163415,8.3740234375,-9.4091796875,68.4326171875
6.8433572,8.4716796875,-10.8740234375,66.1865234375
6.8782999,10.6201171875,-11.7529296875,65.7470703125
6.9062428,13.8916015625,-13.8525390625,61.7431640625
6.9332419,16.0888671875,-16.2939453125,53.5888671875
6.9662896,17.3095703125,-16.8310546875,42.2607421875
6.9933413,19.2138671875,-18.4423828125,29.5654296875
7.0314769,18.8720703125,-20.6884765625,16.7236328125
7.0564113,20.5322265625,-23.4716796875,4.5654296875
7.086393,18.9208984375,-25.1318359375,-6.4697265625
7.1144105,18.0908203125,-26.3525390625,-15.7470703125
7.1513138,18.2373046875,-28.2080078125,-24.2919921875
7.1753241,16.5771484375,-30.8935546875,-33.2275390625
7.2075668,17.3583984375,-32.2607421875,-27.1728515625
7.2355539,16.9677734375,-30.3564453125,36.6943359375
7.2664871,15.6982421875,-24.0576171875,76.4892578125
7.2993595,14.8681640625,-21.0302734375,94.7998046875
7.3273709,13.8916015625,-20.7373046875,99.1943359375
7.3543699,13.0126953125,-21.7138671875,95.9716796875
7.3913235,11.1572265625,-20.5908203125,93.2861328125
7.4193919,11.2548828125,-20.2490234375,88.5986328125
7.4483524,9.3017578125,-21.6162109375,78.6376953125
7.4774298,9.3017578125,-23.5693359375,66.5283203125
7.5074496,7.7392578125,-25.0830078125,58.0810546875
7.538335,6.9580078125,-26.7919921875,55.8349609375
7.5674213,8.9599609375,-27.6220703125,55.8349609375
7.5975187,12.1337890625,-29.3310546875,52.9541015625
7.6284254,14.7705078125,-30.0634765625,45.0439453125
7.659392,16.8212890625,-31.5771484375,34.3017578125
7.6853241,16.6748046875,-33.7744140625,21.5087890625
7.7223964,18.8232421875,-35.4345703125,8.6669921875
7.7473509,19.3603515625,-37.9736328125,-3.9306640625
7.7827965,18.1396484375,-39.2431640625,-14.4775390625
7.8106455,17.7490234375,-41.5869140625,-23.8525390625
7.8394047,17.8955078125,-43.0517578125,-32.1044921875
7.8694973,16.8701171875,-45.1513671875,-35.7177734375
7.9004174,15.8447265625,-45.4443359375,13.2568359375
7.9294329,16.7724609375,-37.9736328125,61.9873046875
7.9666091,15.8935546875,-33.1884765625,87.0849609375
7.9914694,14.8193359375,-32.8466796875,94.0673828125
8.0245702,13.7451171875,-32.7490234375,93.7255859375
8.0515107,13.0126953125,-27.5732421875,89.9658203125
8.0804788,12.4267578125,-13.6083984375,85.2294921875
8.1125902,10.6689453125,-19.5166015625,74.9755859375
8.1405515,9.8876953125,-19.3701171875,60.9619140625
8.176472,9.3505859375,-17.4169921875,53.1494140625
8.2057448,7.9833984375,-18.2958984375,52.8564453125
8.2307919,8.5205078125,-17.7099609375,54.1748046875
8.2686104,10.9130859375,-19.3701171875,51.7822265625
8.2915365,14.8681640625,-19.2724609375,45.5322265625
8.3215238,16.4794921875,-19.0771484375,35.9130859375
8.3505837,18.0908203125,-20.9814453125,24.2431640625
8.3836217,18.3837890625,-21.6650390625,11.7431640625
8.4105415,20.2392578125,-22.3974609375,-0.0244140625
8.4476038,19.3115234375,-21.7626953125,-9.8388671875
8.4736641,17.9931640625,-22.4462890625,-19.2138671875
8.5018534,18.6279296875,-23.9111328125,-27.5634765625
8.5349729,17.1630859375,-24.6435546875,-30.9326171875
8.5627276,18.5302734375,-21.9580078125,19.6044921875
8.5988594,16.8212890625,-13.6572265625,67.9443359375
8.624757,16.2353515625,-8.2373046875,93.3349609375
8.6539228,15.8447265625,-6.8212890625,102.0263671875
8.6817524,13.7451171875,-6.5283203125,101.1474609375
8.719835,13.5009765625,-5.0146484375,99.5361328125
8.745798,12.7197265625,-2.7685546875,96.8994140625
8.775916,11.3037109375,-1.7919921875,89.3310546875
8.8030834,10.5224609375,-2.4755859375,76.2451171875
8.8338805,9.4482421875,-3.6962890625,66.5283203125
8.8851639,9.7900390625,-2.8662109375,62.0361328125
8.9044763,9.9853515625,-3.2080078125,61.5966796875
8.9214165,12.8662109375,-3.9404296875,58.8134765625
8.9567832,15.0146484375,-5.2099609375,52.9052734375
8.9849933,18.4814453125,-5.2099609375,42.2607421875
9.019107,19.3603515625,-6.3330078125,30.7861328125
9.0451366,19.7998046875,-5.8935546875,17.6513671875
9.0771449,21.7041015625,-6.9189453125,5.2490234375
9.1091447,20.1416015625,-6.6259765625,-5.6396484375
9.1361269,19.8486328125,-7.4560546875,-16.1865234375
9.1661715,19.4091796875,-8.4326171875,-24.2431640625
9.2161399,18.5791015625,-8.3349609375,-33.5205078125
9.2351364,18.5302734375,-9.2138671875,-37.3291015625
9.2541509,16.6748046875,-8.0908203125,13.1591796875
9.3061663,17.7490234375,-0.5224609375,65.7958984375
9.3261194,16.4794921875,5.7763671875,93.3349609375
9.3492647,15.4052734375,7.1923828125,102.2216796875
9.3845789,14.0869140625,7.4365234375,102.9052734375
9.4055038,13.4521484375,9.8291015625,100.9521484375
9.440546,13.1591796875,10.7568359375,100.3173828125
9.4685442,11.2060546875,12.7099609375,93.6767578125
9.4965012,10.5712890625,12.2216796875,80.8837890625
9.5295142,9.3994140625,11.7822265625,69.2138671875
9.5585124,8.7646484375,11.7333984375,63.3544921875
9.6085137,8.9599609375,11.3427734375,62.2802734375
9.6275217,10.6201171875,11.1962890625,60.6689453125
9.6485094,14.4775390625,10.2685546875,54.9560546875
9.6816602,16.1376953125,9.9267578125,44.9462890625
9.7085621,19.3603515625,8.7548828125,32.3974609375
9.7385224,19.4580078125,7.4365234375,19.2626953125
9.772568,20.5810546875,6.8505859375,5.6884765625
9.7995469,21.4599609375,5.4345703125,-6.0791015625
9.8285703,19.7998046875,4.6533203125,-16.8212890625
9.8785956,20.0439453125,3.8232421875,-26.3427734375
9.8975368,19.6044921875,2.1142578125,-35.2783203125
9.9186119,18.8232421875,1.5283203125,-43.9208984375
9.9515542,18.6279296875,-0.0341796875,-36.8408203125
9.9815965,18.7255859375,4.9462890625,30.7373046875
10.0116368,17.2607421875,12.2705078125,72.0458984375
10.0405712,16.2353515625,17.1533203125,91.6259765625
10.0704953,15.4541015625,17.7392578125,96.6552734375
10.1030769,13.2568359375,18.6669921875,95.2392578125
10.1312599,13.4033203125,20.3271484375,92.2607421875
10.1610065,11.5478515625,20.5712890625,89.0869140625
10.1950492,10.2783203125,22.1826171875,78.1494140625
10.2209067,10.4248046875,21.6455078125,63.7939453125
10.2531464,8.4716796875,19.4970703125,53.4423828125
10.3021973,8.5693359375,18.2763671875,49.5849609375
10.3211021,9.0087890625,17.2509765625,49.0966796875
10.3409885,12.0849609375,15.7373046875,45.5810546875
10.3729664,15.6005859375,13.4423828125,38.0126953125
10.403022,16.8212890625,11.8310546875,27.1728515625
10.4551975,19.2138671875,10.1708984375,13.5986328125
10.4640388,19.8974609375,8.9990234375,-0.1708984375
10.4931925,20.5322265625,7.1923828125,-13.2080078125
10.5412319,20.9716796875,5.9716796875,-25.8056640625
10.561114,19.5556640625,3.8720703125,-36.8408203125
10.5869895,19.8974609375,2.4560546875,-45.5810546875
10.6138639,19.2626953125,1.1376953125,-54.8583984375
10.6432353,19.4580078125,-2.0361328125,-63.7451171875
10.6804116,18.6279296875,-2.5244140625,-50.9521484375
10.7223891,17.5048828125,1.8701171875,22.4365234375
10.7421716,16.9677734375,8.2177734375,62.4755859375
10.7854811,14.8193359375,11.0498046875,79.7607421875
10.805009,14.3310546875,9.8291015625,82.4462890625
10.8411963,13.0615234375,9.7802734375,77.3193359375
10.8610942,12.2314453125,9.5361328125,72.2900390625
10.8861396,11.1572265625,9.6337890625,65.6005859375
10.9122322,9.9853515625,8.4619140625,52.5634765625
10.9482333,9.9365234375,6.1181640625,38.4521484375
10.9751869,8.7646484375,4.1650390625,31.2744140625
11.0126816,8.0810546875,2.3583984375,30.0537109375
11.0374634,8.6181640625,1.1865234375,29.8095703125
11.0663436,10.8154296875,-0.7177734375,25.3662109375
11.0993995,14.4775390625,-1.5966796875,16.7236328125
11.1444175,16.2353515625,-4.5751953125,5.3466796875
11.1643317,18.1884765625,-5.7470703125,-7.7880859375
11.205172,18.2861328125,-7.1142578125,-21.8994140625
11.2256099,19.6044921875,-9.0673828125,-34.9365234375
11.2483006,19.1162109375,-10.9228515625,-46.0693359375
11.2868396,16.9189453125,-12.7783203125,-55.2978515625
11.3079096,17.5537109375,-14.8291015625,-64.8193359375
11.3399943,15.8447265625,-16.4404296875,-72.9248046875
11.3768747,16.5771484375,-18.0517578125,-58.4228515625
11.3968431,16.4794921875,-13.5595703125,15.4541015625
11.4348769,15.1611328125,-6.2353515625,53.3935546875
11.4599271,14.7705078125,-4.8193359375,70.3857421875
11.4972229,12.9638671875,-5.2587890625,71.4599609375
11.5201363,12.5244140625,-4.4775390625,66.2353515625
11.5551585,11.0595703125,-2.4267578125,60.5712890625
11.582242,10.2294921875,-1.9873046875,52.9541015625
11.6091792,9.3017578125,-2.7197265625,37.8662109375
11.6472892,8.9111328125,-4.0380859375,24.6826171875
11.6732743,7.9833984375,-5.2587890625,20.3369140625
11.7012115,6.7138671875,-4.6728515625,20.4833984375
11.7283318,7.5927734375,-5.3076171875,20.7763671875
11.7662418,9.1552734375,-5.6982421875,15.1123046875
11.7902454,13.1103515625,-6.1376953125,5.7861328125
11.8263063,15.4541015625,-7.0654296875,-5.2978515625
11.8513611,15.8447265625,-8.4326171875,-18.9697265625
11.8803913,17.6025390625,-8.8720703125,-32.2509765625
11.9183154,17.7001953125,-9.3115234375,-44.7509765625
11.942597,18.6279296875,-10.0927734375,-55.2001953125
11.968379,17.2119140625,-11.5087890625,-63.5009765625
12.0053809,16.4306640625,-12.5341796875,-71.8994140625
12.0302233,17.1142578125,-14.3896484375,-79.1748046875
12.0663997,16.1865234375,-13.6572265625,-55.7861328125
12.0909829,15.9423828125,-6.9189453125,20.2392578125
12.120219,15.4052734375,0.1123046875,54.8583984375
12.1587743,14.1845703125,2.6513671875,70.8251953125
12.1836936,13.0615234375,2.6513671875,71.8017578125
12.2126491,12.0361328125,3.5791015625,68.1396484375
12.2496141,11.7919921875,5.6298828125,65.1611328125
12.2718606,10.0341796875,6.0205078125,59.3994140625
12.3129223,10.1806640625,5.9716796875,45.6298828125
12.3342393,8.4228515625,6.0205078125,32.0556640625
12.3697989,7.6904296875,5.1416015625,26.0009765625
12.3928157,7.4462890625,4.7998046875,25.2197265625
12.4307106,7.3486328125,3.7255859375,24.7314453125
12.4628084,11.0595703125,3.2861328125,20.6787109375
12.4838343,13.3544921875,2.7001953125,11.6943359375
12.5268523,15.9423828125,1.8212890625,-0.0244140625
12.546754,17.3583984375,1.3818359375,-12.6708984375
12.5769732,17.9931640625,0.2099609375,-26.3916015625
12.6060238,20.0927734375,-0.7177734375,-38.5498046875
12.6419298,20.0927734375,-1.4013671875,-49.5361328125
12.6670987,18.5302734375,-2.2802734375,-57.8369140625
12.6959621,17.6513671875,-2.6220703125,-65.8935546875
12.7290114,17.7001953125,-3.7451171875,-73.6083984375
12.7579387,17.5048828125,-4.7216796875,-71.6064453125
12.7859438,16.1376953125,-0.6689453125,-4.1259765625
12.8220797,16.6259765625,6.7041015625,48.0224609375
12.8460243,14.8681640625,12.2705078125,71.4599609375
12.8821732,14.5751953125,13.8818359375,77.8076171875
12.9070171,13.4521484375,14.8583984375,77.0263671875
12.9362594,12.2802734375,14.7607421875,73.8525390625
12.9653219,11.7431640625,15.9814453125,71.2158203125
13.0042428,9.3994140625,17.4462890625,63.2568359375
13.0272156,10.5224609375,16.6162109375,48.9501953125
13.0561061,9.3994140625,16.0791015625,39.2822265625
13.0931368,8.6181640625,15.7373046875,34.8388671875
13.1164196,7.8857421875,16.2744140625,35.0341796875
13.1513404,9.5947265625,15.2978515625,33.3251953125
13.1794881,12.1826171875,14.5166015625,27.6123046875
13.2074304,14.3310546875,14.0283203125,17.3583984375
13.2463747,17.3583984375,12.7099609375,6.1767578125
13.2695041,17.8955078125,12.5146484375,-6.5673828125
13.2978442,19.4580078125,11.4892578125,-18.5302734375
13.3365728,20.5810546875,10.9033203125,-29.9560546875
13.3584206,18.7255859375,9.3408203125,-38.6474609375
13.4057348,19.4091796875,8.2177734375,-47.5341796875
13.4188285,17.6025390625,7.7294921875,-54.7607421875
13.4532532,18.2861328125,6.8505859375,-63.1591796875
13.4801822,17.1142578125,6.8505859375,-53.5888671875
13.5160749,16.5283203125,12.2216796875,18.8232421875
13.5389243,16.8701171875,18.2275390625,61.0595703125
13.5769486,15.2587890625,22.3779296875,81.0302734375
13.6010618,14.7705078125,23.7451171875,85.3271484375
13.6401115,13.7451171875,23.5986328125,84.0576171875
13.6599905,12.2314453125,24.0380859375,81.9580078125
13.6902088,11.5966796875,23.3056640625,77.6611328125
13.7231102,10.9619140625,23.4033203125,68.5302734375
13.7521659,10.0341796875,22.2314453125,54.8583984375
13.7810753,7.9833984375,20.5712890625,45.8251953125
13.8122086,7.7880859375,19.4482421875,42.9931640625
13.8490044,6.8603515625,18.0322265625,41.8701171875
13.8710636,8.5205078125,15.5908203125,39.7705078125
13.9081789,12.3779296875,14.2724609375,33.6181640625
13.9312099,14.2333984375,12.0751953125,23.0712890625
13.9611055,17.0654296875,10.8056640625,11.3037109375
13.9991066,17.5048828125,9.1455078125,-2.1728515625
14.0230595,19.5556640625,6.7041015625,-14.0380859375
14.0504862,19.8974609375,5.4345703125,-25.6103515625
14.0885582,18.9208984375,3.8232421875,-35.3271484375
14.1115698,19.0673828125,1.4306640625,-44.3603515625
14.1446591,18.0419921875,-0.5712890625,-52.6611328125
14.1748226,17.9443359375,-2.8662109375,-58.3740234375
14.2016712,17.3095703125,-1.8896484375,-13.2568359375
14.2347627,16.9677734375,4.9462890625,48.7548828125
14.2645708,15.8935546875,10.0244140625,76.3916015625
14.2976533,14.7216796875,10.1220703125,85.3759765625
14.3268099,14.0869140625,9.2919921875,83.2275390625
14.3538088,11.7919921875,9.8779296875,79.1259765625
14.3836582,12.0361328125,10.7568359375,75.2197265625
14.4138023,10.3271484375,10.1220703125,66.0400390625
14.4456661,9.3505859375,9.5361328125,52.6611328125
14.4776598,8.8623046875,7.7783203125,41.3330078125
14.5069052,6.5673828125,6.8017578125,37.3291015625
14.5346233,6.9580078125,6.6552734375,37.2802734375
14.5666931,6.9580078125,5.1416015625,35.9130859375
14.5947536,9.2529296875,3.0419921875,31.6162109375
14.6246524,12.2314453125,1.2353515625,22.7294921875
14.6568344,15.2099609375,-1.1572265625,11.2060546875
14.6868489,16.9677734375,-2.3779296875,-1.7822265625
14.7187411,17.4560546875,-4.7705078125,-13.3544921875
14.7466387,18.7255859375,-5.6982421875,-24.2431640625
14.776706,16.8701171875,-6.9677734375,-34.1552734375
14.805705,17.0654296875,-8.4326171875,-41.7724609375
14.8379226,16.7236328125,-9.5556640625,-50.2197265625
14.8647524,15.4541015625,-11.5087890625,-48.4619140625
14.8988393,16.5771484375,-7.2119140625,15.8935546875
14.9279694,15.0146484375,0.5029296875,61.9873046875
14.9568527,15.1611328125,4.7509765625,82.2021484375
14.9898119,13.6962890625,4.2626953125,86.3525390625
15.0188325,12.6220703125,5.3857421875,83.3740234375
15.0499421,12.2314453125,6.9482421875,79.3212890625
15.0828317,10.3271484375,7.6806640625,74.1455078125
15.1062839,10.3271484375,6.5576171875,63.0126953125
15.1405526,8.0322265625,5.6298828125,49.7802734375
15.1770726,8.4716796875,5.0927734375,42.9931640625
15.1979931,7.1044921875,4.3603515625,42.1142578125
15.2310089,5.4931640625,4.6044921875,43.4326171875
15.2599978,7.4462890625,4.0185546875,41.0400390625
15.2910209,8.9111328125,3.3349609375,33.9599609375
15.3212681,13.6962890625,2.9443359375,24.0478515625
15.3482603,15.0634765625,1.6259765625,12.2802734375
15.3793156,16.2353515625,1.2841796875,0.4638671875
15.4112905,17.7490234375,0.6982421875,-11.7919921875
15.4502588,17.8466796875,0.4541015625,-22.2412109375
15.4713318,17.5537109375,-0.2783203125,-31.5185546875
15.5010959,15.9423828125,-1.8896484375,-40.5029296875
15.5473094,16.1376953125,-2.9150390625,-47.2900390625
15.5631138,16.0400390625,-2.5244140625,-14.9169921875
15.5982251,14.8193359375,5.1904296875,50.0244140625
15.6241732,15.2099609375,10.8544921875,82.2021484375
15.6764489,14.1357421875,13.4423828125,94.0673828125
15.6798191,14.4287109375,12.8076171875,95.1416015625
15.7212112,12.1337890625,14.6142578125,91.6259765625
15.7441018,11.4990234375,16.0791015625,89.1845703125
15.7701171,11.1572265625,17.0068359375,83.7646484375
15.8104201,10.0830078125,16.9091796875,71.8994140625
15.8332384,10.0830078125,15.8837890625,61.5478515625
15.8733413,8.0810546875,15.5908203125,54.9072265625
15.8931753,8.2275390625,14.6630859375,55.0537109375
15.9334653,7.2021484375,14.9072265625,54.8095703125
15.9523007,7.9345703125,14.1259765625,51.4404296875
15.9902514,11.8408203125,13.2470703125,43.4814453125
16.0123602,13.8916015625,12.3193359375,33.2763671875
16.0455259,17.1142578125,11.6357421875,20.5810546875
16.083388,18.1396484375,11.1474609375,7.6904296875
16.1033999,18.6279296875,9.6337890625,-3.4912109375
16.1425182,20.1416015625,9.1455078125,-13.9404296875
16.1645615,18.0419921875,7.7294921875,-22.5341796875
16.2025911,18.9697265625,6.2158203125,-30.5419921875
16.2264317,18.2373046875,5.5810546875,-38.8427734375
16.2625221,18.1884765625,4.0185546875,-31.4697265625
16.2835732,17.5048828125,9.6337890625,36.9384765625
16.3197624,17.5048828125,17.3974609375,79.1748046875
16.3457051,17.1142578125,21.5966796875,98.0224609375
16.3713565,14.6240234375,22.3291015625,103.3447265625
16.4261035,15.1123046875,23.0615234375,102.7587890625
16.4337847,13.2568359375,25.5029296875,100.8056640625
16.4719965,12.3779296875,26.6748046875,98.5595703125
16.4960448,11.8896484375,26.9189453125,90.1123046875
16.5329564,10.8154296875,25.7470703125,78.4423828125
16.5581462,10.1318359375,25.0634765625,69.5556640625
16.5961196,8.8134765625,25.1611328125,66.3330078125
16.6169311,8.5205078125,25.7958984375,66.5283203125
16.6549212,8.3251953125,24.7216796875,64.0380859375
16.6739013,10.8154296875,23.8427734375,58.2275390625
16.7122163,14.5263671875,21.8408203125,48.9501953125
16.7386415,15.6982421875,22.1826171875,38.5009765625
16.7752168,18.9208984375,20.9619140625,26.5380859375
16.7981269,20.2392578125,19.9853515625,15.1123046875
16.8352469,20.4345703125,19.1064453125,4.6142578125
16.8551492,21.8505859375,18.2763671875,-4.2236328125
16.8942633,19.7998046875,17.7880859375,-13.4521484375
16.9183426,20.5322265625,17.1044921875,-21.4599609375
16.9550965,19.8974609375,16.5673828125,-26.8798828125
16.9780168,19.3115234375,18.6181640625,15.4541015625
17.0150889,19.9462890625,25.3564453125,70.1904296875
17.0404423,18.1396484375,31.2158203125,97.4853515625
17.0814854,17.4072265625,33.4619140625,107.4462890625
17.1134399,16.2841796875,33.5107421875,107.9833984375
17.1281784,16.2841796875,33.5107421875,105.2490234375
17.1637884,13.9892578125,33.9013671875,102.1728515625
17.1896376,14.5751953125,33.8037109375,96.2646484375
17.2262736,12.6708984375,32.3876953125,84.5947265625
17.2490742,10.6689453125,29.8974609375,74.7802734375
17.284082,11.0107421875,28.0419921875,69.7021484375
17.3102744,9.3994140625,28.0908203125,69.5556640625
17.3482794,9.8876953125,26.4306640625,67.4072265625
17.3694827,10.6201171875,24.4775390625,63.1591796875
17.4064978,13.8427734375,22.9638671875,54.5166015625
17.4283289,17.3583984375,20.9130859375,44.4091796875
17.4655145,18.7744140625,20.1806640625,32.4951171875
17.4895513,21.0205078125,16.8115234375,19.9462890625
17.526693,21.5576171875,15.2001953125,8.3740234375
17.5505736,22.9736328125,12.7587890625,-1.2451171875
17.5857247,22.1923828125,10.1220703125,-10.3759765625
17.6137842,21.4111328125,8.6572265625,-19.4091796875
17.6498389,20.5322265625,5.8740234375,-27.3681640625
17.6700738,19.6044921875,5.3369140625,-3.9306640625
17.7062811,19.8974609375,11.1474609375,58.1298828125
17.7313437,18.5791015625,16.8603515625,88.0126953125
17.7692911,18.4814453125,18.4228515625,98.6572265625
17.7932305,17.2607421875,17.1044921875,98.6572265625
17.8314668,15.4541015625,17.7880859375,95.5810546875
17.8541015,15.2587890625,18.0322265625,91.9189453125
17.8925014,13.9892578125,17.2509765625,85.8154296875
17.9211953,13.8427734375,16.1767578125,73.5107421875
17.9423749,11.8408203125,13.8330078125,63.1103515625
17.9803137,11.0107421875,12.3681640625,58.3251953125
18.0041771,10.8154296875,10.8544921875,58.3251953125
18.0422241,9.6923828125,10.5126953125,57.5927734375
18.0632403,10.2783203125,8.2177734375,54.2724609375
18.0985942,12.1826171875,6.3623046875,46.0205078125
18.1253229,15.7958984375,5.3857421875,35.7177734375
18.1623765,17.9443359375,3.3349609375,23.2177734375
18.1817428,18.9697265625,1.6259765625,10.3271484375
18.2189449,20.7275390625,0.1611328125,-0.6591796875
18.2439916,20.3369140625,-1.3525390625,-11.1083984375
18.279947,21.8505859375,-3.7451171875,-19.8486328125
18.3049884,20.0439453125,-5.6005859375,-28.0029296875
18.3411335,19.6044921875,-6.6259765625,-13.9892578125
18.3669717,19.3115234375,-0.5224609375,48.6083984375
18.4082046,18.9208984375,4.9951171875,82.0068359375
18.4290609,18.5302734375,6.9970703125,94.7021484375
18.46811,17.3095703125,6.8994140625,95.3857421875
18.487094,17.4560546875,8.0224609375,92.3583984375
18.5241099,15.8447265625,10.7568359375,87.1337890625
18.5459627,14.5751953125,10.7568359375,80.2978515625
18.5801022,14.2822265625,9.2919921875,68.0908203125
18.6082916,12.6708984375,9.2919921875,57.6416015625
18.6444133,12.5244140625,8.4130859375,53.7353515625
18.6644376,11.0595703125,8.7060546875,53.8818359375
18.7035865,10.3759765625,7.6806640625,53.8330078125
18.7284622,10.8154296875,6.9482421875,49.8779296875
18.7685971,11.6943359375,7.3388671875,42.4560546875
18.7904731,15.6494140625,5.9716796875,32.6904296875
18.8287126,18.3837890625,5.0927734375,21.4111328125
18.8515874,20.2880859375,4.0185546875,9.7412109375
18.8805345,21.1181640625,3.8232421875,-0.9521484375
18.9085528,21.4111328125,4.3115234375,-11.4013671875
18.9475359,22.5830078125,3.1396484375,-20.3857421875
18.9687755,21.1669921875,2.2607421875,-27.9052734375
19.0057918,20.5810546875,2.7001953125,0.3662109375
19.0312003,19.3115234375,10.7080078125,60.1318359375
19.0581851,19.9951171875,16.0791015625,90.2587890625
19.09623,19.2626953125,17.6416015625,101.6357421875
19.1301827,17.7978515625,17.2998046875,102.9052734375
19.1501764,18.0908203125,18.9111328125,100.0732421875
19.187223,16.3818359375,19.7412109375,96.5087890625
19.21036,16.6748046875,20.7177734375,91.0400390625
19.2493586,15.0146484375,19.7412109375,79.2724609375
19.2732225,13.5498046875,18.8623046875,68.8720703125
19.3012416,13.9892578125,18.3251953125,63.0126953125
19.330222,12.1337890625,18.3740234375,63.6962890625
19.3612319,11.9873046875,17.4951171875,62.5244140625
19.4005055,11.3525390625,16.3720703125,58.3251953125
19.4196126,14.1845703125,16.3232421875,50.2685546875
19.4526333,17.5537109375,14.5654296875,39.8681640625
19.4901288,18.0419921875,14.1748046875,28.3447265625
19.5100631,21.4599609375,13.1005859375,15.6494140625
19.5480925,21.7529296875,12.2216796875,3.6376953125
19.5710683,22.7294921875,11.8798828125,-7.0068359375
19.6081717,22.5341796875,11.0986328125,-15.7470703125
19.6331014,20.9228515625,9.3408203125,-25.2685546875
19.6611385,21.2158203125,7.9736328125,-28.1005859375
19.6950803,21.0205078125,11.8798828125,27.6611328125
19.7241538,20.7763671875,18.8623046875,79.1259765625
19.7500629,19.0185546875,23.8427734375,103.3447265625
19.7871585,19.1162109375,25.7958984375,110.8642578125
19.8131286,18.0908203125,26.2353515625,111.4013671875
19.8463488,16.7724609375,27.5048828125,109.3505859375
19.8762444,16.6748046875,28.6767578125,107.6904296875
19.9031396,13.9892578125,29.5556640625,100.6591796875
19.9404436,14.4775390625,28.3349609375,89.8681640625
19.965226,12.8173828125,27.6025390625,79.4677734375
19.9952704,11.4501953125,27.0654296875,75.3662109375
20.0263641,11.1572265625,26.1865234375,74.4873046875
20.0555174,9.7412109375,25.2099609375,73.0712890625
20.0881869,11.5478515625,24.2333984375,68.0419921875
20.1152678,13.6474609375,23.1591796875,58.5693359375
20.1441996,17.0166015625,21.7919921875,47.0947265625
20.1742402,18.7255859375,21.2548828125,34.3017578125
20.218298,20.7275390625,20.1318359375,21.4599609375
20.2341617,21.8994140625,19.0576171875,9.5947265625
20.2693232,21.9482421875,18.3251953125,-1.2451171875
20.2962027,22.8271484375,17.6904296875,-10.8642578125
20.3252562,20.9228515625,16.5673828125,-19.6044921875
20.3592617,21.7041015625,14.8583984375,-27.3193359375
20.3963447,20.3857421875,15.8837890625,8.6669921875
20.4192805,18.8232421875,23.1103515625,70.8251953125
20.4476015,20.3369140625,28.8232421875,102.1728515625
20.4777657,18.5791015625,30.2392578125,113.6962890625
20.509392,18.8232421875,30.0927734375,114.8193359375
20.5384643,17.2119140625,30.5810546875,112.7197265625
20.5663895,15.4052734375,30.5810546875,109.9853515625
20.5984703,14.5751953125,30.3857421875,104.0771484375
20.6295478,13.8427734375,29.0185546875,91.4306640625
20.6664675,13.1103515625,27.7490234375,79.0283203125
20.6885523,11.4501953125,25.1611328125,71.7529296875
20.7308289,11.3037109375,23.5498046875,69.9462890625
20.7449878,10.8642578125,22.5244140625,68.9208984375
20.7787523,9.1064453125,19.7900390625,63.4521484375
20.8098606,12.1826171875,18.0322265625,54.3212890625
20.8477442,14.5263671875,15.2490234375,42.6513671875
20.8676822,18.7744140625,13.9794921875,29.6630859375
20.9198864,20.0927734375,11.5869140625,15.6982421875
20.9318112,20.8740234375,10.8056640625,2.2216796875
20.9587974,22.1435546875,8.7548828125,-8.5205078125
21.0008747,23.0224609375,6.7529296875,-19.6533203125
21.0220493,22.3388671875,4.7021484375,-29.0283203125
21.0600168,20.7763671875,2.7001953125,-34.9853515625
21.0790154,21.0693359375,4.6533203125,12.2314453125
21.1217964,20.7763671875,11.3916015625,68.8720703125
21.1420964,19.6044921875,15.0537109375,97.0947265625
21.1773429,20.5322265625,15.2490234375,105.6884765625
21.2009772,18.6279296875,14.9560546875,103.2958984375
21.2530934,18.8232421875,14.7607421875,98.2177734375
21.2629517,17.3583984375,15.5908203125,92.7490234375
21.3001672,16.4306640625,14.9072265625,83.2275390625
21.3200501,16.5771484375,12.6123046875,67.6513671875
21.3631676,13.2080078125,10.5615234375,56.7138671875
21.382038,14.4775390625,9.8291015625,52.5634765625
21.4201428,13.1103515625,8.6083984375,52.3193359375
21.4413365,12.7197265625,7.4365234375,50.5615234375
21.4803121,12.3291015625,5.2392578125,44.0673828125
21.5035836,13.5986328125,3.2861328125,33.7158203125
21.5409232,17.3583984375,0.9912109375,20.2880859375
21.5607342,19.4580078125,-1.4013671875,6.7626953125
21.6002421,21.9482421875,-3.4521484375,-6.7626953125
21.6223067,21.6552734375,-5.1123046875,-18.7744140625
21.6591866,23.5595703125,-6.6748046875,-29.6142578125
21.6843302,23.5107421875,-8.8720703125,-39.4775390625
21.7213094,21.9482421875,-11.1181640625,-46.8994140625
21.7414155,22.2900390625,-8.9208984375,-9.9853515625
21.7783605,21.1181640625,-1.0107421875,56.0302734375
21.8061123,21.8994140625,3.5791015625,87.9638671875
21.8441486,20.9228515625,4.7509765625,97.1923828125
21.8642058,20.1904296875,5.9716796875,96.3623046875
21.9011636,20.0439453125,9.4873046875,91.7724609375
21.9342693,17.7978515625,10.0732421875,86.4501953125
21.9561702,18.0419921875,10.8056640625,76.4892578125
21.9931522,17.5048828125,9.5361328125,60.6689453125
22.0171826,16.1865234375,9.2919921875,48.7060546875
22.0532891,15.0146484375,9.6826171875,45.8251953125
22.0792221,13.8916015625,9.5849609375,44.7998046875
22.1142432,13.2568359375,9.0478515625,44.5556640625
22.1343661,12.8173828125,7.0947265625,39.3310546875
22.1706463,14.3798828125,7.1923828125,28.7841796875
22.1969785,15.6005859375,5.9228515625,17.1630859375
22.2340504,19.9951171875,5.0439453125,2.9052734375
22.2571341,21.8505859375,3.5791015625,-11.0107421875
22.296118,21.6552734375,3.4814453125,-22.6318359375
22.3310316,24.0478515625,2.0654296875,-32.5439453125
22.3499372,23.8037109375,1.4306640625,-42.9443359375
22.3869545,24.5849609375,0.2587890625,-49.6337890625
22.408961,23.5107421875,1.8701171875,-12.5732421875
22.4462489,22.3388671875,10.3662109375,54.4677734375
22.4682146,24.0478515625,15.1513671875,86.4990234375
22.5052607,22.8271484375,17.1533203125,99.2431640625
22.5272647,22.8759765625,18.0322265625,99.9755859375
22.5661438,20.8740234375,19.8876953125,95.4833984375
22.5901192,20.7275390625,21.1083984375,91.0400390625
22.6261184,19.7021484375,21.5478515625,84.2529296875
22.6501273,17.6513671875,21.8896484375,68.5791015625
22.6852478,17.7978515625,20.9130859375,56.5673828125
22.7084084,16.3818359375,20.8642578125,50.6103515625
22.7455804,15.9423828125,20.7177734375,49.7802734375
22.7704399,14.7216796875,19.8876953125,48.7060546875
22.8066431,14.5751953125,20.0341796875,43.1396484375
22.8296792,15.6494140625,19.6435546875,34.3505859375
22.8668171,17.5537109375,18.9111328125,21.7529296875
22.8878883,21.9482421875,17.6416015625,7.7880859375
22.9271696,22.1923828125,16.9091796875,-6.0791015625
22.9519609,24.8291015625,15.9326171875,-18.2861328125
22.989988,25.4150390625,16.0791015625,-29.3701171875
23.0099931,25.0732421875,15.0537109375,-39.0380859375
23.0471154,26.1474609375,14.3701171875,-48.0712890625
23.071117,23.9013671875,13.3447265625,-44.7509765625
23.106088,25.3662109375,18.9599609375,25.0732421875
23.1308522,23.9990234375,25.4052734375,74.1455078125
23.167834,23.3642578125,28.3349609375,97.6318359375
23.1899845,23.4619140625,28.9697265625,104.0283203125
23.229191,22.6318359375,29.7509765625,102.1728515625
23.2530066,22.0458984375,30.9228515625,98.5595703125
23.2920626,20.4345703125,31.5576171875,94.9951171875
23.3111364,19.7509765625,31.3134765625,85.3759765625
23.3472175,18.3349609375,30.1904296875,70.7763671875
23.3723318,18.1884765625,28.6767578125,59.2529296875
23.4093298,17.1630859375,29.7998046875,54.3212890625
23.4339718,14.9658203125,29.4091796875,54.3212890625
23.4721189,15.3564453125,28.5302734375,52.0751953125
23.501564,14.7216796875,27.0654296875,45.7275390625
23.5245601,16.4794921875,26.5283203125,34.5947265625
23.5614903,18.9697265625,25.6982421875,20.7275390625
23.5846862,20.9716796875,24.0380859375,7.5439453125
23.6242828,23.7548828125,23.0615234375,-6.1767578125
23.6461988,23.4619140625,21.7431640625,-18.1396484375
23.6827364,26.1474609375,20.2783203125,-29.8583984375
23.7039496,25.9521484375,19.0087890625,-39.8193359375
23.7411684,25.4150390625,17.1533203125,-48.7060546875
23.764126,25.0244140625,15.5419921875,-49.8291015625
23.8019698,24.8291015625,19.1064453125,14.1845703125
23.8265582,24.1455078125,24.7705078125,67.0654296875
23.8681983,23.8037109375,28.6767578125,92.5537109375
23.8823965,23.5107421875,29.4091796875,99.6826171875
23.9179891,22.1435546875,27.9931640625,98.4619140625
23.9463468,21.7529296875,28.3837890625,93.4326171875
23.9822796,20.7763671875,29.6044921875,88.2568359375
24.0082774,19.3115234375,28.8232421875,76.8798828125
24.0445185,18.5302734375,26.5283203125,61.4990234375
24.0684263,17.8955078125,24.4775390625,48.8037109375
24.1081536,16.5283203125,24.2822265625,44.5556640625
24.1260667,15.6494140625,23.0126953125,45.4345703125
24.1620932,14.2333984375,21.4013671875,42.8955078125
24.1851979,14.5263671875,19.4482421875,36.5478515625
24.2225106,15.3564453125,17.6416015625,25.0732421875
24.2485063,17.9443359375,17.4462890625,11.6455078125
24.2783986,20.9716796875,15.2490234375,-2.9052734375
24.314374,23.4130859375,13.6865234375,-15.6005859375
24.3375363,24.2919921875,11.2939453125,-27.7099609375
24.3766294,24.4384765625,9.4873046875,-38.6962890625
24.3985549,25.1220703125,7.9248046875,-47.2900390625
24.4346111,24.3408203125,5.4833984375,-56.4697265625
24.4567471,24.2431640625,4.1650390625,-52.6611328125
24.4937558,23.1201171875,8.6572265625,14.5263671875
24.5199714,21.6064453125,15.1513671875,62.5244140625
24.5520187,22.3388671875,17.2021484375,83.2275390625
24.5817773,21.5576171875,16.9091796875,87.1337890625
24.6099386,20.5322265625,16.7138671875,82.8369140625
24.6398171,19.8486328125,17.2998046875,76.4892578125
24.6707662,18.8720703125,17.5927734375,68.9697265625
24.7068394,17.6513671875,16.0302734375,54.6630859375
24.7327254,16.4306640625,14.2236328125,38.2080078125
24.7609865,15.6982421875,13.1982421875,29.5654296875
24.7968809,14.8681640625,12.0263671875,29.0771484375
24.8219658,14.2822265625,10.6103515625,29.8095703125
24.8519848,13.1103515625,9.4873046875,28.0517578125
24.887706,12.8173828125,8.2666015625,20.1416015625
24.9120256,13.5986328125,6.7041015625,8.9599609375
24.941894,16.5283203125,4.9951171875,-4.5166015625
24.9738418,19.6533203125,5.7763671875,-17.3583984375
25.001801,21.2646484375,4.1650390625,-29.2724609375
25.0318611,22.5341796875,3.3349609375,-39.9169921875
25.0649508,22.8759765625,2.9931640625,-49.9755859375
25.0938501,23.8037109375,0.6982421875,-58.3251953125
25.1239621,23.0224609375,0.1123046875,-60.2294921875
25.1547944,21.9970703125,4.3115234375,-2.0751953125
25.1818144,21.9970703125,13.0517578125,53.0517578125
25.2119058,21.8017578125,16.3720703125,79.1259765625
25.2489411,21.2646484375,15.8349609375,85.8642578125
25.2709644,20.7763671875,16.4208984375,83.3251953125
25.3169663,20.0927734375,18.6669921875,77.7587890625
25.3338648,19.5556640625,19.6435546875,72.7294921875
25.360877,18.1396484375,18.7158203125,61.6455078125
25.3948815,17.3095703125,17.0556640625,46.5576171875
25.4389741,16.8701171875,17.1533203125,37.3779296875
25.4529093,15.5517578125,16.7138671875,36.2060546875
25.4840261,15.0146484375,17.1044921875,36.9873046875
25.5130478,13.4521484375,16.4208984375,34.9853515625
25.5482511,13.3544921875,15.9326171875,28.0517578125
25.5901709,13.4033203125,15.5419921875,17.4072265625
25.6020079,15.5029296875,15.0048828125,5.0537109375
25.6331023,18.7744140625,14.6142578125,-8.9111328125
25.6650349,21.2646484375,14.6630859375,-21.4599609375
25.7061995,22.8271484375,14.6630859375,-31.1279296875
25.7250285,23.0712890625,13.7353515625,-41.3330078125
25.7690688,23.8037109375,11.9775390625,-51.1474609375
25.7824254,23.9990234375,10.5126953125,-57.3486328125
25.8183165,22.9736328125,12.7099609375,-23.2177734375
25.8634121,22.0947265625,19.8388671875,46.8994140625
25.8766558,22.2900390625,26.1376953125,80.4931640625
25.9214261,21.7529296875,27.9931640625,94.2626953125
25.9341054,21.7041015625,28.7744140625,95.0439453125
25.9878571,20.6787109375,30.0439453125,92.2607421875
26.006314,20.1904296875,32.3876953125,89.9169921875
26.0253001,19.3603515625,32.8759765625,84.1552734375
26.0693602,18.6279296875,32.3876953125,70.8251953125
26.088216,17.9443359375,31.6064453125,58.0322265625
26.1306633,16.5283203125,31.7041015625,52.4169921875
26.1502641,16.5283203125,31.9482421875,52.3193359375
26.1873535,15.3564453125,30.7763671875,52.5146484375
26.2092961,13.7451171875,30.5810546875,48.0712890625
26.247539,13.2568359375,29.8486328125,39.7705078125
26.2684696,14.9169921875,29.1162109375,27.7099609375
26.3095864,17.7490234375,28.4814453125,14.5751953125
26.3277075,20.6787109375,26.9677734375,2.2216796875
26.3657944,22.0947265625,26.1865234375,-9.9365234375
26.3920477,23.6572265625,25.4052734375,-20.3369140625
26.4309634,24.7802734375,24.1845703125,-29.2236328125
26.4507189,24.9267578125,23.3056640625,-37.1826171875
26.4878725,24.4873046875,22.3779296875,-42.5048828125
26.509841,23.9013671875,24.3798828125,2.2216796875
26.5507836,23.3642578125,31.9482421875,62.9150390625
26.5730959,23.4130859375,36.9775390625,93.4814453125
26.6250289,23.3154296875,38.7841796875,104.3212890625
26.6459119,22.3388671875,39.6630859375,104.8583984375
26.6581929,21.5576171875,40.7373046875,102.2705078125
26.697816,21.3134765625,41.1767578125,99.6826171875
26.7211606,19.8486328125,40.6396484375,92.7978515625
26.7580045,18.8720703125,39.4189453125,80.0537109375
26.7797654,17.6513671875,37.0751953125,68.4326171875
26.8236497,16.3818359375,35.4638671875,61.8896484375
26.8478145,15.7958984375,34.0966796875,62.0849609375
26.8838668,14.4775390625,31.9970703125,61.2548828125
26.9051749,13.9892578125,29.9462890625,56.7138671875
26.9410029,14.1845703125,28.5791015625,48.2666015625
26.9648564,14.7705078125,26.8212890625,36.4990234375
27.0049666,17.6025390625,24.6240234375,23.9990234375
27.0262911,20.1904296875,22.4267578125,11.6455078125
27.0737924,22.6806640625,19.4482421875,-0.6103515625
27.0950912,23.7548828125,17.9345703125,-10.8154296875
27.1151748,24.5849609375,15.7373046875,-20.8251953125
27.1542543,25.0732421875,13.6865234375,-29.1748046875
27.1794871,24.6337890625,11.7333984375,-36.4501953125
27.2182047,23.7548828125,12.3681640625,-14.1845703125
27.233188,23.0712890625,19.0576171875,52.8076171875
27.2692625,23.2177734375,24.8681640625,86.9873046875
27.2943418,22.6806640625,26.6259765625,100.2197265625
27.3324086,22.1923828125,25.4052734375,100.9521484375
27.3564232,21.5576171875,25.5029296875,97.7783203125
27.3934051,20.4833984375,26.4306640625,93.8720703125
27.4136737,18.9697265625,27.3583984375,88.0126953125
27.454468,18.3349609375,24.1845703125,75.3173828125
27.4759254,17.1142578125,21.5966796875,64.7216796875
27.5106222,15.8935546875,20.9130859375,59.1064453125
27.5380285,14.7216796875,19.8876953125,59.2041015625
27.5740497,14.1357421875,18.4228515625,59.6923828125
27.5955415,13.3056640625,17.2509765625,55.3955078125
27.6344068,12.9638671875,15.3466796875,47.6806640625
27.654456,13.0615234375,13.4423828125,36.3525390625
27.6893719,15.5517578125,12.6611328125,23.8525390625
27.7175222,18.9697265625,10.8056640625,11.3037109375
27.756564,20.3857421875,8.7060546875,-0.0732421875
27.7774933,22.1435546875,6.1669921875,-9.9365234375
27.8135467,23.1201171875,4.4580078125,-19.4091796875
27.8350359,23.4130859375,1.8701171875,-28.0517578125
27.8712387,23.5107421875,-0.3759765625,-29.9560546875
27.8972815,21.6552734375,3.0419921875,25.9033203125
27.936492,22.4365234375,10.4638671875,73.1689453125
27.9582647,21.3134765625,11.6845703125,94.3603515625
27.9943407,21.5576171875,11.6845703125,99.3896484375
28.0142558,20.7275390625,11.7333984375,97.5341796875
28.0523199,19.7998046875,13.6376953125,91.8212890625
28.0784447,19.4091796875,13.3935546875,86.6455078125
28.1154702,17.6513671875,12.3681640625,76.7822265625
28.1374413,16.9189453125,10.3662109375,64.4287109375
28.1754429,15.8447265625,9.5361328125,56.7626953125
28.1983914,15.6494140625,9.1943359375,57.6904296875
28.2374839,14.5263671875,9.3896484375,57.9833984375
28.2574781,13.3544921875,7.6806640625,56.0791015625
28.2938142,12.9638671875,6.7529296875,50.1708984375
28.3197437,12.1337890625,5.7275390625,41.1865234375
28.3568329,13.7451171875,4.6533203125,30.5419921875
28.3796096,16.7724609375,3.5302734375,18.2373046875
28.4156112,18.9208984375,2.8955078125,8.1787109375
28.4428015,20.7275390625,2.8466796875,-1.2939453125
28.479863,21.8017578125,1.9189453125,-10.1318359375
28.4999449,23.0712890625,0.2099609375,-19.6533203125
28.5369307,22.8759765625,-0.6201171875,-23.4619140625
28.559955,21.8994140625,3.3837890625,18.1884765625
28.5960593,21.6064453125,11.8310546875,70.8251953125
28.6219484,21.6064453125,16.3232421875,98.2666015625
28.6579816,21.2646484375,16.0791015625,106.7138671875
28.6839087,19.6533203125,16.6162109375,105.2978515625
28.7199494,21.0693359375,17.7392578125,102.1728515625
28.741005,19.2138671875,19.5947265625,98.7060546875
28.7782121,18.4814453125,19.5458984375,91.7724609375
28.8029772,17.1142578125,17.6904296875,80.3466796875
28.8412247,16.3818359375,17.7880859375,71.3623046875
28.8619837,15.6494140625,17.8857421875,67.4560546875
28.899101,14.3798828125,16.7138671875,67.9443359375
28.9199779,14.1845703125,16.3720703125,66.6748046875
28.9561682,12.9150390625,15.7373046875,62.6708984375
28.983105,12.7685546875,16.1767578125,54.6630859375
29.0181394,13.2568359375,15.4931640625,44.2138671875
29.0432114,16.7236328125,15.1513671875,32.8857421875
29.0802278,19.8974609375,14.9560546875,20.8740234375
29.1065127,21.7529296875,13.7841796875,10.5712890625
29.1454552,23.1689453125,12.5634765625,0.3173828125
29.1624138,23.9990234375,11.6845703125,-7.9833984375
29.2006956,23.9501953125,10.4638671875,-16.5771484375
29.2236859,24.3408203125,8.9501953125,-23.9013671875
29.2637373,22.0947265625,11.0498046875,3.1494140625
29.2836118,22.7783203125,18.4716796875,65.6005859375
29.3206054,22.0947265625,23.8427734375,100.0732421875
29.3415974,21.8994140625,25.5517578125,112.9150390625
29.3789794,21.8994140625,26.4306640625,114.4775390625
29.4039389,21.2646484375,28.2861328125,111.6943359375
29.4391425,20.3369140625,30.5322265625,109.6435546875
29.4791233,19.2626953125,31.2158203125,104.9560546875
29.4956692,18.4326171875,31.1669921875,94.7021484375
29.5357658,17.1142578125,30.9228515625,83.9599609375
29.5549093,16.4794921875,30.9716796875,77.2216796875
29.5939632,15.5029296875,30.5810546875,76.2451171875
29.6169185,14.3310546875,31.5087890625,75.3662109375
29.6581347,14.1845703125,30.2880859375,71.4599609375
29.6779901,12.6220703125,30.0439453125,64.6240234375
29.7082896,12.8173828125,28.7744140625,54.3701171875
29.7460065,15.3564453125,26.9677734375,42.7490234375
29.767937,17.8466796875,25.7470703125,30.6884765625
29.7979397,20.5322265625,24.3310546875,18.3837890625
29.8342267,21.9482421875,23.2568359375,7.6416015625
29.8569409,23.3154296875,22.3779296875,-1.8798828125
29.8962203,23.5595703125,21.4990234375,-9.6435546875
29.9170967,23.9013671875,20.2294921875,-18.7744140625
29.9522788,23.4130859375,20.1806640625,-25.4638671875
29.9782509,22.6318359375,23.4033203125,8.3740234375
30.0171406,22.5830078125,31.3623046875,70.8251953125
30.0401304,22.2900390625,35.4638671875,103.1005859375
30.0692359,22.5341796875,38.4423828125,114.8193359375
30.1051118,22.2412109375,38.0029296875,116.9189453125
30.1302186,20.9716796875,39.7119140625,113.2080078125
30.1681655,20.1416015625,40.0048828125,109.6923828125
30.1891364,19.0185546875,40.2001953125,104.0283203125
30.2243058,18.0419921875,38.2958984375,92.6025390625
30.2532522,16.9677734375,36.7822265625,81.1279296875
30.2822574,15.6005859375,36.1474609375,74.9755859375
30.310212,14.3798828125,35.3662109375,72.3388671875
30.3632936,13.4033203125,34.1943359375,71.8017578125
30.371182,13.5009765625,32.5830078125,68.0419921875
30.4002115,11.5966796875,31.9482421875,59.7900390625
30.4603867,12.0849609375,30.7275390625,49.2919921875
30.4640815,14.7216796875,30.1904296875,36.2060546875
30.4942319,17.9443359375,28.8232421875,23.5107421875
30.5398394,20.1904296875,27.6513671875,10.3271484375
30.5516593,21.8505859375,27.1630859375,-1.0009765625
30.5803728,22.5830078125,26.2841796875,-10.5712890625
30.6135069,23.3642578125,24.3310546875,-20.6787109375
30.6402725,24.0966796875,23.4033203125,-28.5888671875
30.689504,22.8759765625,22.1337890625,-36.9384765625
30.7033348,22.1923828125,21.5478515625,-32.1044921875
30.7474877,21.7041015625,28.6767578125,39.4287109375
30.762278,22.0458984375,35.6103515625,84.3505859375
30.8104777,21.3134765625,38.9306640625,103.8818359375
30.8206377,20.9228515625,38.3447265625,108.2763671875
30.8724841,20.6298828125,38.2958984375,105.3466796875
30.8818758,18.8232421875,38.5400390625,100.6591796875
30.9285369,17.7978515625,38.5400390625,96.6064453125
30.9493674,17.1630859375,38.4912109375,85.3759765625
30.9865841,15.8447265625,35.9033203125,72.7294921875
31.006473,14.9658203125,34.1455078125,61.7431640625
31.0495657,14.2822265625,32.2900390625,58.0322265625
31.0635405,13.5498046875,31.7041015625,56.8115234375
31.1095246,11.8896484375,29.5556640625,54.5654296875
31.1284367,11.2548828125,27.9931640625,46.9970703125
31.1665056,11.0595703125,26.5283203125,37.6708984375
31.1864424,11.0107421875,24.8681640625,23.6083984375
31.229703,13.9892578125,22.0361328125,8.8623046875
31.2484789,16.9189453125,19.6435546875,-4.3212890625
31.2836653,18.8232421875,17.2021484375,-17.2119140625
31.3048341,20.5810546875,14.2724609375,-28.8818359375
31.3498994,21.3134765625,12.3193359375,-38.2568359375
31.3698279,22.1923828125,11.0986328125,-47.1435546875
31.4148806,22.0458984375,8.1689453125,-56.1279296875
31.4359882,21.4111328125,7.0458984375,-62.1337890625
31.4701023,20.6298828125,10.2685546875,-15.4541015625
31.4914831,19.9951171875,18.4228515625,53.6865234375
31.53034,20.0927734375,21.7919921875,82.9833984375
31.5576518,19.6533203125,22.1337890625,90.8447265625
31.5737106,18.9208984375,21.7919921875,88.6474609375
31.6247484,18.2373046875,22.6708984375,81.9580078125
31.6377083,16.8701171875,23.0126953125,74.1455078125
31.6748241,15.8447265625,21.4501953125,63.1103515625
31.6989473,14.6240234375,19.0576171875,46.9482421875
31.7389814,13.5498046875,17.7392578125,35.2294921875
31.7577869,12.6708984375,17.2998046875,30.9814453125
31.7997234,11.2060546875,15.7861328125,31.9091796875
31.8201733,11.0595703125,14.5166015625,30.2978515625
31.8620452,9.5458984375,12.5634765625,24.8291015625
31.8819504,9.1064453125,11.7333984375,14.3798828125
31.9197175,9.0087890625,10.5615234375,0.7568359375
31.9397762,10.4736328125,8.4619140625,-14.1357421875
31.9788162,13.8427734375,6.8994140625,-29.0283203125
31.9987532,17.3095703125,4.5068359375,-42.2607421875
32.0384292,18.3837890625,3.5302734375,-52.7587890625
32.0563503,19.4091796875,1.5283203125,-62.7685546875
32.0974918,20.7763671875,-0.7177734375,-71.5087890625
32.1177532,20.0439453125,-2.5732421875,-80.3955078125
32.1588573,18.9208984375,-2.3779296875,-63.5986328125
32.1787391,18.9697265625,5.5322265625,19.9462890625
32.2178261,18.4814453125,11.0498046875,61.8408203125
32.2429108,18.0419921875,12.1728515625,77.5146484375
32.2798074,17.8466796875,12.1728515625,78.2470703125
32.2988591,17.4072265625,14.1259765625,71.0693359375
32.3400994,16.9189453125,15.1513671875,64.1357421875
32.3589906,15.5029296875,15.2978515625,54.6142578125
32.3950053,14.2333984375,14.0771484375,39.8193359375
32.4220573,13.9404296875,12.6123046875,24.2431640625
32.4590046,12.7685546875,12.7099609375,17.2119140625
32.4830199,11.4501953125,11.5380859375,17.6025390625
32.5303296,11.2060546875,11.9775390625,18.8720703125
32.5501949,10.0830078125,11.0498046875,15.8447265625
32.5862125,7.9345703125,10.3173828125,6.8115234375
32.6063185,8.5205078125,8.6083984375,-5.6884765625
32.642347,9.2041015625,7.7294921875,-19.5556640625
32.6654155,11.6455078125,6.8505859375,-33.8623046875
32.7024997,14.4287109375,6.2158203125,-47.5830078125
32.7219543,16.5771484375,5.3369140625,-59.6923828125
32.7598861,17.4560546875,5.1904296875,-68.4326171875
32.7841766,18.2861328125,2.8955078125,-77.9052734375
32.8222901,18.5302734375,1.9677734375,-85.8642578125
32.8493894,18.1396484375,3.1396484375,-71.5087890625
32.8967868,17.0166015625,11.8798828125,12.4755859375
32.9288095,16.7236328125,18.3251953125,57.4462890625
32.9323981,17.3583984375,19.6435546875,76.2939453125
32.9698201,16.7724609375,19.9365234375,78.5888671875
32.9945181,16.1376953125,21.3525390625,73.4619140625
33.0417686,16.1865234375,22.2314453125,66.9677734375
33.0619103,14.9658203125,23.4521484375,58.9599609375
33.0974302,14.2822265625,22.7197265625,45.2392578125
33.1183843,12.5244140625,21.5966796875,29.5166015625
33.1557925,12.2802734375,21.4501953125,21.4599609375
33.1758207,10.6689453125,20.7177734375,20.8740234375
33.2137437,10.3271484375,19.9853515625,21.5087890625
33.2365892,9.0576171875,19.6923828125,18.3349609375
33.2788147,8.6181640625,19.5458984375,9.3994140625
33.2977528,7.5927734375,18.2275390625,-2.5146484375
33.3359543,7.8369140625,17.3486328125,-16.5771484375
33.3549904,10.6201171875,17.1044921875,-30.8837890625
33.4050485,13.4033203125,16.8603515625,-43.8720703125
33.4240524,16.3330078125,15.1025390625,-56.4208984375
33.4581788,17.1630859375,14.7607421875,-66.2841796875
33.478137,18.0419921875,14.1259765625,-74.9267578125
33.5124111,18.7744140625,12.9541015625,-82.6904296875
33.5355657,17.4072265625,11.9775390625,-88.3544921875
33.5735623,17.7001953125,16.4208984375,-41.3330078125
33.5956741,17.1142578125,23.6962890625,37.1826171875
33.6346537,17.1142578125,28.2861328125,69.6533203125
33.6587639,16.4794921875,29.7021484375,81.5673828125
33.696777,15.8935546875,29.6044921875,80.7861328125
33.7167732,15.6005859375,31.5576171875,77.0751953125
33.7731406,15.2587890625,32.2900390625,73.2177734375
33.7939081,14.3798828125,33.2177734375,65.9912109375
33.8110837,13.0615234375,31.4599609375,51.9775390625
33.8502312,12.4755859375,29.8486328125,38.1103515625
33.8720876,12.3291015625,29.6044921875,31.0302734375
33.9090277,11.2548828125,29.7998046875,30.8837890625
33.9289949,10.0341796875,29.5068359375,31.4697265625
33.9691455,9.1552734375,28.3349609375,27.1240234375
33.9891603,7.6904296875,27.5048828125,17.9443359375
34.0252055,7.1044921875,26.4306640625,5.2001953125
34.0469626,8.3251953125,25.3564453125,-8.5693359375
34.0829776,11.3525390625,24.6728515625,-22.8759765625
34.1120282,14.0869140625,23.3544921875,-36.6455078125
34.1501105,16.1865234375,22.6220703125,-47.6806640625
34.1719803,17.2119140625,21.1083984375,-57.4462890625
34.2070662,18.0419921875,19.9365234375,-65.2587890625
34.2341211,19.2138671875,18.4228515625,-73.4130859375
34.2703548,18.8720703125,17.5927734375,-80.2490234375
34.290246,18.4814453125,19.5458984375,-49.2431640625
34.3262505,18.6279296875,27.3583984375,32.5439453125
34.3522281,17.1630859375,33.2666015625,69.8486328125
34.3903513,17.4560546875,34.8779296875,84.3994140625
34.4123078,16.7236328125,34.7314453125,87.0849609375
34.4656355,16.4306640625,36.0498046875,83.3251953125
34.4844382,15.9423828125,36.8310546875,80.4931640625
34.5045019,14.9169921875,37.8076171875,73.9990234375
34.5314397,14.2333984375,37.3681640625,61.8408203125
34.5714339,13.0126953125,36.0498046875,47.6806640625
34.600414,12.2314453125,35.7568359375,40.3564453125
34.6283193,11.1083984375,35.9521484375,38.8916015625
34.6664875,10.5224609375,35.2197265625,38.7451171875
34.6843669,9.2529296875,33.8525390625,34.9853515625
34.7204243,8.5693359375,32.9248046875,27.4658203125
34.7468709,7.8857421875,31.7041015625,14.9169921875
34.7836749,8.1787109375,30.3857421875,1.5380859375
34.8076947,10.6689453125,28.3837890625,-13.7451171875
34.8446567,13.5986328125,26.7724609375,-26.9775390625
34.8717321,15.7958984375,25.1611328125,-39.0380859375
34.8969232,17.5537109375,23.0126953125,-48.9013671875
34.9337395,18.2373046875,21.0595703125,-57.0068359375
34.9555315,19.7998046875,19.2529296875,-65.2587890625
34.9915361,19.7021484375,18.2763671875,-73.9990234375
35.0155902,18.8720703125,16.9091796875,-70.5322265625
35.0527479,18.0908203125,24.0380859375,2.1728515625
35.0758206,18.5302734375,30.6787109375,56.8603515625
35.1068942,18.1884765625,33.6572265625,80.3466796875
35.144894,18.0419921875,33.8525390625,86.9873046875
35.1689123,17.4072265625,33.2177734375,83.4228515625
35.2049818,17.3583984375,34.8291015625,79.9560546875
35.2269863,16.4794921875,34.5361328125,74.4873046875
35.2641831,15.6005859375,33.1201171875,64.3310546875
35.2871617,14.5751953125,31.4599609375,48.3154296875
35.3232375,13.5986328125,29.5556640625,36.5478515625
35.3472005,13.2080078125,28.5791015625,33.5205078125
35.3822428,12.0849609375,27.8955078125,33.8623046875
35.4058814,10.4248046875,25.8447265625,32.0068359375
35.4422876,10.2783203125,24.3798828125,24.6337890625
35.469201,9.4482421875,21.8408203125,13.9892578125
35.4984584,9.3017578125,20.7666015625,-0.0244140625
35.5342756,10.5712890625,18.3251953125,-15.2099609375
35.5613594,13.2080078125,16.4208984375,-29.1259765625
35.5895244,16.1865234375,14.8095703125,-40.6005859375
35.6184777,18.8232421875,12.3193359375,-51.7333984375
35.6502917,20.6298828125,10.0732421875,-59.6435546875
35.6773382,21.1181640625,8.6572265625,-68.4326171875
35.7133195,21.7041015625,7.1435546875,-75.8544921875
35.7403108,21.8017578125,9.7802734375,-44.6044921875
35.7685354,20.5322265625,16.9580078125,31.8115234375
35.8165039,20.1416015625,21.2060546875,65.1123046875
35.8375743,20.1416015625,21.3525390625,79.0283203125
35.8584951,20.0439453125,20.9130859375,78.5400390625
35.9054439,19.4580078125,22.2314453125,71.9970703125
35.9203511,19.2626953125,21.6943359375,66.6748046875
35.9505739,18.1396484375,21.0107421875,57.9345703125
35.9823949,17.5537109375,19.3505859375,41.2841796875
36.0104129,16.5771484375,17.6904296875,26.7333984375
36.0584235,15.6982421875,17.2998046875,22.5830078125
36.0724687,15.2099609375,15.7861328125,23.7548828125
36.1164115,13.4033203125,15.2001953125,24.2919921875
36.1355864,12.5244140625,14.1259765625,18.9697265625
36.1767397,11.8408203125,12.5146484375,9.3505859375
36.1978114,11.7919921875,12.1240234375,-3.2470703125
36.2388565,11.2060546875,11.1474609375,-17.1630859375
36.2508314,13.1103515625,10.1708984375,-31.7138671875
36.2979707,16.0888671875,9.8291015625,-43.7255859375
36.3159159,18.3349609375,9.0478515625,-53.2958984375
36.341012,19.7998046875,7.9736328125,-62.0849609375
36.3921047,21.5576171875,6.9970703125,-70.7275390625
36.4029762,21.9970703125,6.1669921875,-70.6787109375
36.4303526,22.0947265625,12.8564453125,-5.0048828125
36.4627913,20.9228515625,20.2783203125,50.8056640625
36.4928111,20.8251953125,23.3056640625,74.2431640625
36.5229331,20.2880859375,22.1826171875,81.7138671875
36.5648735,20.1416015625,23.3544921875,78.2958984375
36.5860812,19.5556640625,25.5517578125,73.5595703125
36.6269296,19.7509765625,27.1630859375,68.6767578125
36.6480039,19.0185546875,26.8212890625,56.6650390625
36.6863121,18.1396484375,25.2587890625,41.9189453125
36.7064297,17.6025390625,24.6240234375,32.2021484375
36.745651,16.1376953125,25.1123046875,30.2490234375
36.7657274,15.3564453125,24.9658203125,31.1767578125
36.8107029,14.7216796875,25.1123046875,28.3447265625
36.8305966,14.3798828125,24.0869140625,21.4111328125
36.8685566,13.6474609375,23.9892578125,9.7412109375
36.8887259,12.9150390625,22.3779296875,-3.6865234375
36.927762,12.5244140625,21.8408203125,-16.8212890625
36.9456775,14.8193359375,20.9619140625,-30.4443359375
36.9905187,17.2607421875,20.8642578125,-41.5283203125
37.0105049,19.7998046875,20.0341796875,-51.4404296875
37.0515909,21.6064453125,19.1552734375,-59.2529296875
37.0718443,22.1923828125,17.7392578125,-67.5048828125
37.1088175,22.4853515625,17.4462890625,-66.1376953125
37.1285911,22.0947265625,24.7216796875,-1.6845703125
37.1678623,21.3623046875,31.8994140625,53.0029296875
37.1877363,21.0693359375,35.8056640625,79.2236328125
37.227894,20.9228515625,36.5869140625,87.5732421875
37.2470018,20.8740234375,37.1728515625,87.3291015625
37.2889946,20.1904296875,38.6865234375,85.1318359375
37.3090036,20.4345703125,40.3955078125,82.8369140625
37.347189,19.4580078125,40.8349609375,74.8779296875
37.3690766,18.5302734375,40.0537109375,61.6943359375
37.4078618,17.8955078125,38.1005859375,51.3427734375
37.4277603,17.2607421875,39.0771484375,47.6318359375
37.4639213,15.6982421875,38.5400390625,47.5830078125
37.4888859,15.1611328125,37.6123046875,46.2646484375
37.5260072,14.2822265625,36.7333984375,39.9658203125
37.5499795,13.3544921875,35.7568359375,30.1025390625
37.5850445,12.3291015625,35.4638671875,18.1884765625
37.6072668,12.8173828125,34.6826171875,4.5166015625
37.6482117,14.1845703125,33.9501953125,-8.1298828125
37.6673582,16.9677734375,33.5595703125,-18.5791015625
37.7053563,20.0439453125,31.5087890625,-27.7099609375
37.7296337,21.2158203125,31.0693359375,-35.0341796875
37.7677733,22.6806640625,29.6533203125,-41.9189453125
37.7908722,23.6083984375,28.8232421875,-49.3896484375
37.8257588,23.9990234375,29.7998046875,-40.4052734375
37.8487241,23.4619140625,37.5634765625,26.6357421875
37.8887486,22.6806640625,43.5693359375,70.9228515625
37.9119396,21.8505859375,46.9873046875,93.9697265625
37.9509826,21.6552734375,48.0615234375,101.0009765625
37.9709345,21.9482421875,49.6240234375,101.6357421875
38.0087973,21.3134765625,50.8935546875,100.8056640625
38.0318833,20.8740234375,52.0654296875,98.8525390625
38.0699182,19.7509765625,52.2607421875,90.2099609375
38.089898,19.0185546875,50.3564453125,78.4912109375
38.127027,18.7255859375,50.5517578125,68.6767578125
38.152023,17.4560546875,50.0146484375,66.6259765625
38.188931,16.7236328125,50.0146484375,67.0166015625
38.2150081,15.6494140625,48.7939453125,64.8681640625
38.2521199,15.4052734375,47.7685546875,59.0087890625
38.2721473,14.7216796875,46.0595703125,49.1455078125
38.3092521,13.3544921875,45.4736328125,38.0126953125
38.3322521,13.7939453125,44.8876953125,25.8056640625
38.3683486,16.3330078125,42.7880859375,14.2333984375
38.3937617,19.0185546875,42.3486328125,4.1259765625
38.4317904,20.7763671875,40.9326171875,-4.5654296875
38.4668786,22.8271484375,39.8583984375,-11.0595703125
38.4821904,23.9990234375,38.7353515625,-18.2373046875
38.5323614,25.2685546875,37.7099609375,-25.0244140625
38.5452398,25.5126953125,36.5869140625,-29.0283203125
38.5820445,25.2197265625,40.8349609375,12.3779296875
38.6050661,24.4384765625,48.3544921875,66.8701171875
38.6450117,24.5849609375,52.9443359375,96.8505859375
38.6669394,23.5107421875,52.9931640625,107.7880859375
38.704055,23.7060546875,54.0185546875,110.5712890625
38.7240923,23.3154296875,55.5322265625,110.4736328125
38.7611489,22.6806640625,55.9228515625,110.4736328125
38.7882275,21.6552734375,56.0205078125,104.9560546875
38.8287165,21.0693359375,54.9951171875,93.0419921875
38.8494392,20.4833984375,53.3349609375,81.9091796875
38.8874304,19.1162109375,52.2607421875,76.7822265625
38.9083796,18.2373046875,50.6982421875,77.8564453125
38.9444567,17.4560546875,49.5751953125,75.9033203125
38.9674986,17.0166015625,46.3037109375,71.3134765625
39.0034683,15.8447265625,43.8623046875,62.4267578125
39.0273358,15.1123046875,42.2998046875,52.6611328125
39.064665,14.6240234375,40.0048828125,40.4541015625
39.0841227,14.9658203125,37.3681640625,28.2958984375
39.1218599,18.1884765625,35.6591796875,18.0419921875
39.1479558,20.6787109375,33.6083984375,9.1064453125
39.1858785,23.5107421875,31.7041015625,1.1962890625
39.2110333,24.6826171875,29.7021484375,-5.2490234375
39.2609137,26.1474609375,27.4072265625,-12.8662109375
39.2809131,26.6845703125,25.8447265625,-20.0927734375
39.3012306,26.3916015625,26.6259765625,-4.6142578125
39.3392003,26.2451171875,32.6318359375,53.9306640625
39.3602719,25.5615234375,38.4912109375,89.6240234375
39.4042767,24.5361328125,39.3212890625,106.5673828125
39.4231158,24.3896484375,39.4677734375,110.7666015625
39.4597297,24.0966796875,40.5908203125,109.1064453125
39.4798019,23.9501953125,42.1533203125,107.5927734375
39.5158507,23.0224609375,41.1279296875,103.4912109375
39.5418993,21.6064453125,38.9306640625,94.1650390625
39.5778716,21.2646484375,37.2216796875,82.3486328125
39.6021229,19.9462890625,36.3427734375,77.9052734375
39.6381681,18.6767578125,35.6591796875,78.0029296875
39.6589525,18.1396484375,33.6572265625,77.8076171875
39.6968877,17.0166015625,31.9482421875,74.4873046875
39.7199526,16.0888671875,30.8251953125,68.2373046875
39.7568868,15.0146484375,29.5068359375,57.0068359375
39.78092,14.2333984375,27.8955078125,45.4833984375
39.8180321,14.5751953125,25.7958984375,31.9091796875
39.8389536,16.0888671875,23.8427734375,20.9716796875
39.8762153,19.5068359375,22.2314453125,11.2060546875
39.9010313,21.9482421875,20.9130859375,4.4677734375
39.9380245,23.8525390625,19.3017578125,-2.0263671875
39.9614325,24.4873046875,17.1044921875,-8.4228515625
40.0004524,25.6103515625,16.8115234375,-15.9912109375
40.0230093,25.8056640625,18.1787109375,-7.0556640625
40.0607431,25.3662109375,26.1376953125,50.3173828125
40.0806544,24.6337890625,32.9248046875,88.3544921875
40.1168116,23.9013671875,34.6337890625,106.6650390625
40.1403246,23.8525390625,35.5615234375,110.7666015625
40.1790188,23.4130859375,38.1005859375,109.6923828125
40.2124424,23.2177734375,39.7119140625,107.5927734375
40.2331824,21.9970703125,39.7119140625,105.3466796875
40.2702259,21.6552734375,38.4423828125,96.1669921875
40.2934289,20.7275390625,36.4404296875,85.4248046875
40.3312836,19.9462890625,35.9033203125,80.0048828125
40.3546282,18.3837890625,35.7568359375,78.8818359375
40.3925803,17.7978515625,35.2685546875,80.2490234375
40.4114978,16.9677734375,33.9501953125,77.0263671875
40.4486685,15.9423828125,33.0224609375,70.8251953125
40.4748771,15.1611328125,32.0947265625,60.3271484375
40.5120609,13.6474609375,31.4111328125,48.9501953125
40.535566,13.9404296875,30.9716796875,37.3779296875
40.5640371,15.2099609375,30.1904296875,24.5849609375
40.6013748,18.4814453125,29.0673828125,14.8681640625
40.6267211,20.8740234375,28.7255859375,6.6650390625
40.6547915,22.7783203125,26.5771484375,-0.3662109375
40.7051419,23.9990234375,25.6982421875,-7.3974609375
40.7160842,25.3662109375,25.1611328125,-14.6240234375
40.7521424,25.7568359375,24.1357421875,-10.3271484375
40.7786196,25.2197265625,31.3134765625,45.4833984375
40.805822,24.0478515625,38.6376953125,87.4267578125
40.8358348,24.1455078125,41.2255859375,109.0087890625
40.8848443,23.9990234375,40.9814453125,115.7958984375
40.9058511,23.0712890625,42.2998046875,114.3798828125
40.9277935,23.2666015625,45.7666015625,113.7451171875
40.9578895,21.8017578125,46.3525390625,112.8662109375
40.99574,21.4111328125,45.9619140625,105.8349609375
41.0207071,19.5556640625,44.2529296875,94.5556640625
41.0658405,19.2138671875,43.9599609375,84.8876953125
41.0848484,18.2861328125,43.6181640625,83.9599609375
41.1070025,17.2119140625,42.5927734375,83.4228515625
41.1379625,16.4794921875,41.9091796875,80.7861328125
41.1747919,15.5029296875,40.4443359375,74.5849609375
41.2167827,15.0146484375,39.1748046875,65.0634765625
41.2367752,13.7451171875,38.1982421875,52.5146484375
41.2619064,14.1845703125,37.1728515625,40.0146484375
41.2898588,13.6962890625,36.0009765625,27.2705078125
41.316835,16.2841796875,35.0732421875,16.0400390625
41.3548658,19.9462890625,34.5849609375,7.2021484375
41.3979074,21.5576171875,33.3642578125,-1.0986328125
41.4185255,22.9248046875,32.1435546875,-8.0810546875
41.454713,23.7548828125,31.6064453125,-15.2099609375
41.4748958,24.9267578125,30.3857421875,-22.9736328125
41.5142594,24.9267578125,29.4091796875,-27.4658203125
41.5353726,23.8037109375,34.8291015625,18.5302734375
41.5773418,23.4619140625,41.5673828125,73.3154296875
41.5961067,22.9248046875,45.5712890625,103.2958984375
41.6463604,22.7783203125,46.7919921875,112.2802734375
41.6662804,22.8271484375,48.0126953125,114.4775390625
41.6821927,22.0947265625,49.7216796875,112.9150390625
41.7106127,21.1181640625,50.9912109375,112.4755859375
41.7566064,20.1904296875,51.8212890625,108.9111328125
41.7756382,19.4091796875,50.5517578125,97.9248046875
41.8118261,17.6513671875,48.8427734375,86.5478515625
41.8327756,17.1142578125,48.7939453125,80.6396484375
41.8768834,15.9912109375,47.9638671875,79.6142578125
41.8970158,14.4775390625,47.2314453125,78.7353515625
41.9370468,13.4033203125,46.0107421875,73.5595703125
41.9558669,13.3056640625,44.7412109375,64.3798828125
41.9930341,12.4267578125,43.1298828125,51.9287109375
42.0132589,11.4013671875,41.5185546875,38.9892578125
42.0570393,12.0361328125,40.1513671875,24.7802734375
42.0772821,14.0380859375,38.1982421875,12.0361328125
42.1184209,17.0654296875,35.3662109375,0.8544921875
42.1383292,20.0927734375,33.6083984375,-9.0576171875
42.1744653,20.9716796875,31.4599609375,-16.1376953125
42.196539,22.2412109375,29.8974609375,-23.7548828125
42.2376984,23.6572265625,28.2861328125,-31.2744140625
42.25657,23.9013671875,27.0166015625,-40.3076171875
42.2944854,23.3154296875,26.6259765625,-37.9638671875
42.3165891,22.7783203125,32.7294921875,26.8798828125
42.3546431,22.3876953125,38.2958984375,75.3662109375
42.3738496,22.1435546875,40.3955078125,99.1943359375
42.4158131,21.8505859375,39.3701171875,104.1748046875
42.4359769,21.2646484375,39.0771484375,102.9541015625
42.4798993,20.4345703125,40.3955078125,99.7802734375
42.4997004,19.7998046875,41.0791015625,97.4365234375
42.5393087,19.0673828125,40.0537109375,90.0146484375
42.5597505,18.0419921875,37.7587890625,76.5380859375
42.5988511,16.8701171875,36.5380859375,65.1611328125
42.6187426,15.0634765625,34.8779296875,61.8408203125
42.6586901,14.6240234375,34.1455078125,61.7919921875
42.6801185,13.5986328125,32.2900390625,59.8388671875
42.7198403,12.6220703125,30.0927734375,53.2470703125
42.7389322,11.9384765625,28.7255859375,43.4814453125
42.7768859,10.9619140625,26.5283203125,30.0537109375
42.7958959,10.3759765625,25.5517578125,15.0146484375
42.839069,10.7666015625,23.3544921875,1.0986328125
42.8590239,13.2568359375,21.4013671875,-10.6689453125
42.8969896,16.0400390625,19.8388671875,-20.8740234375
42.9191269,18.2861328125,18.0810546875,-30.5419921875
42.9571506,19.9951171875,16.1767578125,-38.1103515625
42.9771791,21.2646484375,15.4931640625,-44.9951171875
43.0200876,22.0458984375,12.5146484375,-54.2236328125
43.0391637,21.8505859375,11.9775390625,-59.8388671875
43.0772267,21.3623046875,17.4462890625,-11.2060546875
43.0981168,20.2880859375,24.2333984375,52.3681640625
43.1363277,19.6533203125,26.4306640625,80.0537109375
43.1603051,20.0927734375,25.6494140625,88.1103515625
43.1982996,20.1904296875,26.4306640625,85.9130859375
43.2183392,19.3115234375,28.5302734375,81.3232421875
43.2524096,18.4814453125,28.3837890625,76.7333984375
43.2785438,18.6767578125,27.7978515625,68.7255859375
43.3165448,17.2607421875,26.6259765625,54.7119140625
43.3425756,15.9423828125,25.8935546875,42.7001953125
43.3806951,15.3076171875,26.6748046875,38.7451171875
43.4006436,14.5751953125,27.1630859375,39.3798828125
43.4376235,13.3056640625,26.7236328125,39.0380859375
43.4577298,12.5244140625,25.5517578125,33.5205078125
43.5007552,12.2802734375,25.6982421875,24.1943359375
43.5208807,10.9130859375,24.7216796875,11.4501953125
43.5588924,9.7412109375,23.6962890625,-3.0029296875
43.5830253,10.5224609375,22.3291015625,-17.3095703125
43.6181167,11.7919921875,22.0849609375,-28.7841796875
43.6390736,13.9892578125,20.0341796875,-40.3564453125
43.6742148,16.5771484375,19.0087890625,-48.8525390625
43.6991673,19.1162109375,19.0087890625,-55.8837890625
43.7364186,19.5068359375,17.9833984375,-63.5498046875
43.7631197,20.3369140625,16.7138671875,-71.4599609375
43.8010766,21.1669921875,20.2783203125,-53.0029296875
43.8242372,20.1904296875,29.6044921875,24.8779296875
43.8613229,20.2392578125,35.0244140625,63.8916015625
43.8815228,19.9951171875,35.5126953125,80.6396484375
43.9183369,19.4580078125,35.8056640625,82.8369140625
43.9450356,20.1416015625,38.3935546875,78.4423828125
43.9915987,19.3603515625,38.9794921875,73.5107421875
44.0115739,18.7744140625,40.2490234375,68.6279296875
44.0485962,18.3349609375,38.5888671875,58.5205078125
44.0683373,17.4560546875,37.1240234375,42.9443359375
44.1054925,16.0400390625,36.5380859375,33.8623046875
44.1265779,15.6494140625,36.2451171875,32.2509765625
44.1677048,14.6240234375,35.5126953125,32.9345703125
44.1969263,13.5498046875,34.7802734375,30.2001953125
44.2138136,12.9150390625,34.1943359375,22.3876953125
44.2510306,11.5478515625,32.7294921875,10.9130859375
44.2739257,10.9130859375,32.7294921875,-3.3447265625
44.3121881,9.9853515625,31.5576171875,-17.6025390625
44.3361532,10.7666015625,30.2880859375,-31.4208984375
44.3749475,12.9638671875,30.0439453125,-43.3837890625
44.3938811,15.9912109375,27.9443359375,-53.1005859375
44.4310115,18.2861328125,27.4072265625,-62.0361328125
44.4542308,19.3115234375,26.6748046875,-69.0185546875
44.4901504,20.8251953125,25.5029296875,-77.8076171875
44.5184513,20.7275390625,24.6728515625,-84.4482421875
44.5550503,20.8740234375,28.6767578125,-59.2529296875
44.5760921,20.6787109375,36.2939453125,24.1943359375
44.6142979,19.7509765625,40.6396484375,62.8662109375
44.6331747,19.7509765625,42.3486328125,79.3701171875
44.6723752,19.0673828125,42.6904296875,81.1767578125
44.6972641,18.8232421875,44.0087890625,78.5400390625
44.7394165,18.3837890625,45.2783203125,73.6083984375
44.7582798,17.6025390625,45.8642578125,69.6044921875
44.7963505,17.4560546875,44.0576171875,57.6416015625
44.8182925,16.3330078125,42.5439453125,42.2607421875
44.8555485,15.3076171875,42.5439453125,33.1298828125
44.8755913,14.2333984375,41.6650390625,30.8837890625
44.91845,13.2080078125,41.2744140625,31.9091796875
44.9396262,12.9638671875,40.5908203125,29.0283203125
44.9816582,11.7919921875,40.3955078125,20.8740234375
44.9994167,10.7666015625,40.0537109375,9.7900390625
45.0365871,9.6923828125,39.1259765625,-4.3701171875
45.0608249,9.3994140625,37.7587890625,-19.6533203125
45.0985473,9.7412109375,36.5869140625,-34.0087890625
45.1195174,11.4990234375,35.0244140625,-46.4111328125
45.1594798,14.0869140625,33.0224609375,-56.4208984375
45.1794302,17.6513671875,31.2158203125,-65.8447265625
45.2156499,18.3349609375,30.8251953125,-72.4853515625
45.2417745,19.4580078125,29.7021484375,-80.7373046875
45.2777635,21.0693359375,28.6279296875,-87.6220703125
45.3120063,20.1416015625,32.2900390625,-71.4599609375
45.3309315,19.9462890625,41.2744140625,13.0126953125
45.3751958,19.7509765625,45.5224609375,58.8623046875
45.3956411,18.8720703125,47.5244140625,78.5400390625
45.4301944,18.8720703125,46.4013671875,80.9814453125
45.4485943,18.4326171875,47.4755859375,78.0029296875
45.4914451,18.3837890625,48.1591796875,74.0478515625
45.5103056,18.1884765625,49.4287109375,69.3603515625
45.5478033,17.0166015625,48.2080078125,58.7158203125
45.5727844,15.7470703125,47.0361328125,43.1884765625
45.6108902,14.1357421875,46.4501953125,31.9580078125
45.6308561,14.2333984375,46.4013671875,28.3935546875
45.6688996,12.5244140625,45.2294921875,27.5146484375
45.6908308,11.7919921875,44.9853515625,25.7568359375
45.7280879,10.6689453125,44.3017578125,17.3583984375
45.7544455,10.0341796875,42.6416015625,5.3955078125
45.792178,8.9599609375,41.0791015625,-8.8623046875
45.8144664,7.7880859375,39.2724609375,-25.2685546875
45.8542785,8.1787109375,36.9287109375,-39.0869140625
45.8773521,10.1806640625,35.0244140625,-53.2958984375
45.913311,12.7197265625,33.0712890625,-63.5986328125
45.932349,15.6005859375,31.2158203125,-73.4130859375
45.9714287,16.9677734375,29.5556640625,-81.1279296875
45.9957708,18.5302734375,27.5537109375,-89.0869140625
46.0342843,19.5068359375,24.9169921875,-96.7529296875
46.0562818,19.7021484375,24.6728515625,-97.2412109375
46.0857828,18.7255859375,31.4111328125,-31.4208984375
46.1135554,17.9931640625,38.0517578125,39.5751953125
46.1514532,18.1396484375,40.7861328125,64.7705078125
46.1755575,18.0419921875,39.1748046875,73.0712890625
46.2135966,17.3583984375,38.9306640625,71.2158203125
46.255294,18.1396484375,38.7841796875,66.1376953125
46.2757132,17.3583984375,38.7353515625,59.7412109375
46.299901,16.3818359375,38.5400390625,49.8291015625
46.325806,15.3564453125,36.2939453125,32.7392578125
46.3548168,14.3310546875,34.4873046875,19.7509765625
46.3929839,13.2568359375,34.1455078125,15.2587890625
46.433801,12.5732421875,33.1201171875,15.0146484375
46.4537504,11.3037109375,30.5322265625,14.9658203125
46.4790571,10.3271484375,29.1650390625,9.3505859375
46.5236525,9.4970703125,26.6748046875,-1.5869140625
46.5359645,8.5693359375,25.4052734375,-14.9169921875
46.5730086,7.7880859375,22.9638671875,-30.1513671875
46.5977885,7.1533203125,21.4013671875,-45.4345703125
46.6470114,8.3740234375,19.7412109375,-57.3486328125
46.6679261,11.4990234375,18.6181640625,-69.3603515625
46.705026,13.6962890625,16.3720703125,-77.0751953125
46.724295,16.1376953125,15.0048828125,-85.2783203125
46.7491171,17.4560546875,13.0517578125,-93.0419921875
46.7762125,18.4326171875,12.4169921875,-96.5576171875
46.8396058,19.2138671875,19.1064453125,-41.3818359375
46.843374,19.3603515625,25.7958984375,31.4697265625
46.8709413,18.4814453125,27.4072265625,57.9345703125
46.8996097,17.7490234375,26.2841796875,66.0888671875
46.9276791,17.3095703125,25.8447265625,62.9638671875
46.9777409,17.4072265625,27.4072265625,56.6650390625
46.9898622,17.0166015625,27.7001953125,50.2197265625
47.0199246,16.8701171875,25.6494140625,39.1357421875
47.0530831,16.2841796875,24.3798828125,21.7041015625
47.0808203,15.4052734375,23.4033203125,9.5458984375
47.1159083,14.7216796875,23.4521484375,6.7626953125
47.1589448,13.7451171875,22.8173828125,8.8134765625
47.1788893,12.5732421875,22.6708984375,7.1533203125
47.2159788,11.4990234375,22.5732421875,1.0009765625
47.2358484,10.4736328125,21.4990234375,-9.6923828125
47.2751362,10.6689453125,21.0595703125,-23.4130859375
47.2940584,9.5458984375,19.7900390625,-38.1591796875
47.3381397,8.0322265625,17.9833984375,-51.7333984375
47.3589801,8.6669921875,16.9091796875,-63.7451171875
47.398121,11.4990234375,16.5673828125,-74.2431640625
47.4170826,13.6474609375,15.1513671875,-82.1044921875
47.452064,15.3076171875,13.4423828125,-90.0634765625
47.4719989,18.0419921875,12.2705078125,-96.6064453125
47.5171671,18.2373046875,17.3974609375,-66.2353515625
47.5372594,19.2626953125,26.1865234375,15.4541015625
47.5752129,19.3603515625,30.8251953125,52.1240234375
47.5953319,17.6025390625,30.9716796875,66.0400390625
47.6322217,17.7490234375,31.4111328125,66.0888671875
47.6522444,18.0908203125,33.2177734375,61.5478515625
47.6993168,18.0908203125,34.8291015625,57.6416015625
47.7194383,17.6025390625,34.9755859375,52.5634765625
47.7564402,17.8955078125,32.4853515625,38.4033203125
47.776725,17.0654296875,31.9482421875,24.7802734375
47.8145912,16.3330078125,31.4599609375,19.5068359375
47.8330925,15.4052734375,31.5576171875,20.5322265625
47.8777037,13.9892578125,31.0693359375,19.5556640625
47.8986375,13.7451171875,29.9462890625,16.2353515625
47.9428455,13.5498046875,28.6767578125,7.1533203125
47.9615527,12.2802734375,27.9931640625,-5.4931640625
47.9986228,11.1572265625,27.6025390625,-18.7744140625
48.0188095,10.3271484375,27.1630859375,-32.7392578125
48.0568505,10.3759765625,25.7470703125,-45.5810546875
48.0767699,11.6943359375,24.9658203125,-56.2255859375
48.1147304,14.4775390625,23.3544921875,-64.6240234375
48.1346779,16.3818359375,22.9638671875,-71.5087890625
48.1778022,18.8720703125,21.3037109375,-79.0771484375
48.1990076,20.5322265625,21.6455078125,-79.0771484375
48.2335766,21.3623046875,29.7021484375,-18.7744140625
48.253888,21.6064453125,35.9521484375,43.8720703125
48.295102,21.3134765625,37.7587890625,68.9208984375
48.3180532,19.9951171875,38.6865234375,77.9541015625
48.3561321,20.1416015625,40.1025390625,78.3935546875
48.3769737,21.0693359375,41.9091796875,76.2451171875
48.4159884,20.0439453125,42.9833984375,75.2197265625
48.4360381,20.1416015625,42.3974609375,68.4814453125
48.4831874,20.1416015625,41.8115234375,55.5419921875
48.514387,18.9208984375,41.1279296875,44.7998046875
48.5292879,18.2373046875,40.4931640625,42.5048828125
48.5674693,17.0166015625,39.9560546875,42.6025390625
48.5951129,15.8935546875,40.0048828125,42.0166015625
48.6330055,15.0146484375,39.0283203125,36.5966796875
48.6525018,15.6494140625,37.9541015625,27.9541015625
48.6902102,13.7451171875,36.9775390625,15.7958984375
48.7213964,13.3056640625,36.0498046875,3.1494140625
48.7403032,12.1826171875,35.0244140625,-9.1064453125
48.7682424,13.0126953125,34.1455078125,-18.9208984375
48.8040956,14.0869140625,33.3642578125,-28.1982421875
48.8300643,16.7724609375,32.0947265625,-34.5947265625
48.8712757,19.6044921875,31.5576171875,-40.7958984375
48.8983966,21.8994140625,29.5068359375,-47.3388671875
48.9362996,23.0712890625,29.2626953125,-46.6552734375
48.9614298,23.8037109375,37.3681640625,9.0087890625
48.9795018,24.4384765625,44.6435546875,59.7900390625
49.0432225,23.6083984375,47.5244140625,85.8154296875
49.1240132,23.4619140625,47.9150390625,94.7021484375
49.1250692,23.0224609375,49.7216796875,94.9951171875
49.1280097,23.1201171875,53.7255859375,95.1416015625
49.1316872,22.7783203125,54.7509765625,95.3369140625
49.1701169,22.5830078125,54.1650390625,90.2099609375
49.1910771,21.9970703125,51.9677734375,78.4423828125
49.2331082,20.9716796875,51.5283203125,69.2138671875
49.2643466,20.3369140625,51.2841796875,65.8447265625
49.3015196,19.9462890625,50.3564453125,66.6748046875
49.3113689,18.8232421875,49.3798828125,64.9658203125
49.3617453,18.4814453125,48.7939453125,61.4501953125
49.3815444,17.5537109375,46.7919921875,52.2216796875
49.4185822,16.0888671875,46.2060546875,41.0400390625
49.4385109,15.2587890625,44.3017578125,28.8818359375
49.4745576,14.8193359375,42.5927734375,18.0419921875
49.4944696,15.2587890625,41.5673828125,7.2998046875
49.5296481,16.3330078125,39.4189453125,-1.0009765625
49.5527211,19.2626953125,37.7099609375,-8.8134765625
49.5917577,22.7294921875,35.9033203125,-14.9658203125
49.6135817,24.0966796875,34.3408203125,-21.0693359375
49.6518313,25.4150390625,31.8505859375,-29.3212890625
49.6818755,27.1728515625,33.4130859375,-22.9248046875
49.7200108,27.6611328125,40.0537109375,36.2060546875
49.7398451,27.4658203125,46.4990234375,77.6611328125
49.7779746,26.8798828125,46.4013671875,100.1708984375
49.7979061,26.6357421875,46.4501953125,105.5419921875
49.8360356,26.5869140625,47.7685546875,106.5673828125
49.8550761,25.8544921875,48.9892578125,105.7861328125
49.8953046,25.8544921875,49.9169921875,105.6884765625
49.9155146,25.2685546875,48.1103515625,99.1943359375
49.9594781,23.9013671875,46.0107421875,87.8662109375
49.9803306,23.5595703125,45.5712890625,79.1748046875
50.0164429,22.7294921875,45.2294921875,76.5380859375
50.0477264,21.7529296875,44.1552734375,76.4404296875
50.0659434,21.2646484375,42.2509765625,75.0732421875
50.1049722,19.9462890625,40.0537109375,71.4111328125
50.1247773,19.1162109375,38.0517578125,63.5986328125
50.165023,18.4814453125,36.6357421875,53.0517578125
50.1847428,17.4560546875,34.9267578125,41.4306640625
50.225906,16.8701171875,32.5830078125,30.3955078125
50.2560033,17.5537109375,32.1923828125,20.5322265625
50.2913036,18.5791015625,30.1904296875,12.6708984375
50.312456,21.2646484375,28.8720703125,5.9814453125
50.3494073,23.7548828125,25.9423828125,0.7080078125
50.3700244,25.8056640625,24.4775390625,-7.7880859375
50.4090792,27.1240234375,23.9892578125,-12.5244140625
50.428088,27.8076171875,29.2626953125,21.4111328125
50.4641175,28.5400390625,36.1474609375,71.5576171875
50.4859728,28.7353515625,37.8076171875,100.7080078125
50.5280806,28.2958984375,37.4169921875,110.8642578125
50.5500148,27.8564453125,38.8330078125,112.7685546875
50.5904115,27.0263671875,40.6884765625,112.0361328125
50.6120931,27.2705078125,41.9580078125,112.0849609375
50.649128,27.6123046875,41.3720703125,109.3017578125
50.6803271,26.7333984375,38.8818359375,98.4619140625
50.6984877,25.5126953125,38.1982421875,89.5263671875
50.7402862,25.1708984375,38.3447265625,86.4501953125
50.75816,24.1455078125,38.6865234375,86.8896484375
50.8074118,22.5830078125,37.6123046875,87.6220703125
50.8273336,21.8505859375,36.7822265625,83.3740234375
50.8524833,21.7529296875,35.6591796875,76.1962890625
50.8895576,20.9716796875,34.5849609375,66.2353515625
50.9094169,19.6044921875,33.4130859375,56.1279296875
50.9505883,19.2626953125,33.1201171875,45.1904296875
50.9705465,17.8955078125,32.5830078125,35.5224609375
51.0075559,18.7255859375,30.9716796875,26.6357421875
51.0316175,21.2646484375,30.3369140625,19.1650390625
51.0696692,24.5361328125,29.2626953125,12.9150390625
51.0918484,26.5380859375,28.1884765625,6.8115234375
51.1298325,27.6611328125,26.9189453125,-1.6845703125
51.1509027,29.1748046875,29.6044921875,8.1787109375
51.1839911,29.7119140625,38.9794921875,61.1083984375
51.2219407,30.3955078125,43.8134765625,98.7060546875
51.2448635,29.5654296875,44.0087890625,115.6982421875
51.2738741,29.2236328125,45.4248046875,120.8251953125
51.3011349,29.3701171875,48.9892578125,122.3876953125
51.3440812,28.6865234375,50.6982421875,123.3642578125
51.3812717,28.5888671875,51.9677734375,124.1943359375
51.4018597,27.6611328125,51.4794921875,118.6279296875
51.4258632,27.7587890625,50.2587890625,108.2275390625
51.4529318,27.0263671875,50.2099609375,101.7333984375
51.4829085,25.9033203125,50.8935546875,100.3662109375
51.5148997,25.7080078125,49.4287109375,101.0986328125
51.5439502,24.3408203125,49.0869140625,99.0966796875
51.5741668,23.1201171875,48.4033203125,93.8720703125
51.6052008,22.2412109375,46.6943359375,86.2548828125
51.6350458,21.8994140625,46.3037109375,76.1474609375
51.6672168,20.7763671875,44.8388671875,65.9912109375
51.6950695,20.2880859375,44.8876953125,55.3955078125
51.7302469,19.9951171875,43.3251953125,45.6787109375
51.7531693,20.8251953125,42.6904296875,38.1591796875
51.786228,23.6572265625,40.9814453125,30.8837890625
51.815275,26.1962890625,40.1513671875,24.7314453125
51.8452468,28.4423828125,38.8818359375,18.3837890625
51.8764981,29.5166015625,38.3935546875,10.4248046875
51.903298,30.7373046875,39.7607421875,16.4794921875
51.938624,31.7626953125,47.9150390625,68.1396484375
51.9662697,31.0302734375,53.2861328125,106.7138671875
51.9932427,30.4443359375,55.7275390625,125.2197265625
52.0443375,29.5654296875,56.3623046875,131.6650390625
52.0653118,29.7607421875,58.6572265625,133.2275390625
52.1053269,29.0283203125,61.8310546875,135.1806640625
52.1280174,28.5888671875,63.8818359375,136.9384765625
52.1636478,28.3935546875,62.5634765625,132.8369140625
52.1844464,27.3193359375,61.8798828125,123.8525390625
52.2206493,26.6845703125,61.0986328125,115.9423828125
52.2406749,25.4638671875,61.6357421875,113.5009765625
52.2885196,24.4873046875,60.5126953125,113.4521484375
52.3095592,23.7060546875,59.9755859375,111.6455078125
52.3535973,22.5341796875,59.2431640625,106.5673828125
52.3569455,22.0458984375,58.3154296875,98.5107421875
52.4174332,21.1181640625,57.3876953125,90.2587890625
52.420781,19.8486328125,56.2158203125,79.4677734375
52.4483547,18.9697265625,54.5068359375,68.6767578125
52.4783842,19.1650390625,53.3349609375,59.1064453125
52.527961,19.1650390625,52.5048828125,49.7314453125
52.5479786,22.3876953125,51.2353515625,42.6025390625
52.5839666,25.0244140625,50.0634765625,34.4970703125
52.6029935,26.6357421875,49.6240234375,28.3447265625
52.6462707,28.4912109375,48.6474609375,20.7763671875
52.6652092,29.7119140625,47.4755859375,12.6220703125
52.7073374,30.6884765625,48.8916015625,11.2060546875
52.7292497,30.8349609375,56.6064453125,59.6923828125
52.7671485,30.8837890625,63.1494140625,104.3212890625
52.7791147,29.9560546875,66.9091796875,126.0009765625
52.8263848,29.0771484375,68.0322265625,133.7646484375
52.8467626,29.1259765625,69.8388671875,135.2783203125
52.8845946,28.5888671875,71.6943359375,137.6708984375
52.9054073,28.4423828125,72.0849609375,138.5498046875
52.9436175,27.5634765625,71.1083984375,135.3759765625
52.963007,26.1962890625,68.6181640625,125.8544921875
53.0055857,25.2197265625,67.1044921875,117.7001953125
53.02456,24.1455078125,65.8837890625,113.1103515625
53.0819441,23.0712890625,63.7841796875,112.5244140625
53.0852611,22.3876953125,62.0263671875,110.7177734375
53.1127627,20.8740234375,59.1943359375,107.0068359375
53.1619058,20.5322265625,56.3623046875,99.3408203125
53.1828406,18.9208984375,54.7021484375,88.9404296875
53.22099,19.0185546875,52.6513671875,78.8330078125
53.2417199,17.8466796875,49.9169921875,67.5048828125
53.2797964,17.3583984375,48.1591796875,56.9091796875
53.305271,17.2607421875,44.9365234375,46.4111328125
53.3428844,19.5068359375,43.4228515625,37.9638671875
53.361969,22.8271484375,41.1279296875,30.3466796875
53.3970762,25.2197265625,39.8095703125,23.6572265625
53.4172004,26.9775390625,37.9541015625,15.8935546875
53.4541894,27.6123046875,35.8056640625,7.2509765625
53.4752858,29.2236328125,35.3173828125,0.7568359375
53.5152968,29.8095703125,41.2255859375,34.8876953125
53.5362116,29.8095703125,48.5986328125,87.7197265625
53.5813358,29.2236328125,50.4052734375,117.5537109375
53.6005245,28.2470703125,50.4052734375,127.1240234375
53.6385168,27.9052734375,51.6748046875,127.9052734375
53.6575077,28.0029296875,52.5537109375,126.6357421875
53.6957041,27.5634765625,53.5302734375,125.8544921875
53.715611,26.4892578125,52.4560546875,122.5341796875
53.7597078,25.4150390625,49.6728515625,114.3798828125
53.7797831,24.1943359375,48.0126953125,104.5654296875
53.8155287,23.3642578125,47.1826171875,98.9501953125
53.8355014,22.4853515625,46.8408203125,97.7783203125
53.8814141,21.5087890625,44.6435546875,97.1435546875
53.907657,20.4345703125,42.6416015625,93.0419921875
53.926342,19.6044921875,41.3232421875,85.9130859375
53.9546087,18.5302734375,38.1982421875,75.2197265625
53.9995334,17.5048828125,37.1240234375,64.0869140625
54.0188367,16.4306640625,34.7802734375,52.2705078125
54.060914,15.5029296875,33.9013671875,40.3076171875
54.0789413,15.6494140625,32.0458984375,29.8583984375
54.1187014,16.3330078125,30.0927734375,21.4111328125
54.1470003,19.2626953125,28.8232421875,14.0869140625
54.1860449,22.2412109375,26.7236328125,6.8115234375
54.2058275,24.5361328125,25.3564453125,-1.1962890625
54.2429758,25.6591796875,25.5517578125,-5.1513671875
54.2628482,26.6357421875,33.6572265625,41.8212890625
54.3029371,27.1240234375,40.2001953125,89.4775390625
54.3220791,26.4404296875,41.3720703125,112.8662109375
54.3603457,26.0986328125,41.5673828125,120.3857421875
54.3790225,26.1962890625,43.3740234375,119.6533203125
54.4222416,25.0244140625,46.0595703125,118.1396484375
54.4422876,25.6591796875,47.0849609375,117.1630859375
54.4769331,25.3173828125,45.4736328125,111.6455078125
54.5014825,24.3408203125,43.1787109375,100.9521484375
54.5425567,24.1455078125,43.4228515625,92.3095703125
54.5614561,23.0224609375,42.2998046875,88.6474609375
54.6032414,21.5576171875,42.2998046875,88.2568359375
54.6241477,20.4345703125,41.7626953125,87.4267578125
54.6642145,19.9462890625,40.6884765625,81.5673828125
54.6823201,18.5791015625,39.7607421875,73.0224609375
54.7225388,17.7490234375,39.5166015625,61.9873046875
54.7428328,17.4072265625,38.6865234375,50.7568359375
54.7857478,16.2353515625,38.3935546875,38.2568359375
54.810016,15.2587890625,36.9287109375,27.0751953125
54.8459873,15.6005859375,36.3916015625,18.0908203125
54.8660973,16.7724609375,34.5849609375,8.9111328125
54.9030765,20.0439453125,33.9990234375,1.1474609375
54.9372545,22.3388671875,31.8505859375,-7.2509765625
54.9500787,24.1943359375,30.6787109375,-15.2587890625
55.0010489,25.4638671875,37.1728515625,6.9580078125
55.0107606,26.4892578125,45.3759765625,67.6025390625
55.0529046,26.8798828125,49.6240234375,102.1728515625
55.0738606,25.8544921875,50.8935546875,116.6748046875
55.1178412,25.4638671875,51.4794921875,118.7744140625
55.1386915,25.5615234375,54.4091796875,116.9189453125
55.1648419,24.4384765625,56.1669921875,116.3818359375
55.2079947,24.7802734375,55.9716796875,114.3798828125
55.2298858,24.4873046875,54.3115234375,106.2744140625
55.267975,24.0478515625,54.1162109375,94.3603515625
55.2878481,22.9248046875,54.1650390625,87.5732421875
55.3251777,21.8505859375,53.9697265625,85.0830078125
55.3460483,21.1669921875,53.8720703125,84.6923828125
55.3890732,19.8486328125,53.2861328125,80.8837890625
55.4039074,19.0185546875,51.2841796875,72.7783203125
55.4448538,18.0908203125,51.0888671875,63.2080078125
55.4660861,17.7001953125,50.4052734375,49.7314453125
55.5071755,16.6259765625,49.4775390625,36.7919921875
55.5271621,15.7470703125,47.8173828125,24.5361328125
55.5691553,15.3564453125,46.9384765625,13.1103515625
55.5901433,15.4052734375,45.4248046875,2.1240234375
55.6271033,18.0419921875,44.7412109375,-5.8349609375
55.6470792,20.1416015625,42.9345703125,-13.3544921875
55.6879776,23.3642578125,42.0068359375,-20.9716796875
55.7083096,24.9267578125,40.7373046875,-29.7607421875
55.7505663,26.1962890625,43.7158203125,-21.3134765625
55.7653926,26.6845703125,52.5537109375,46.3134765625
55.812564,26.6357421875,57.7294921875,90.8935546875
55.8263494,26.0498046875,59.1455078125,110.7177734375
55.8699703,25.6103515625,59.6826171875,115.8447265625
55.8901326,25.5615234375,60.7080078125,114.9658203125
55.9289837,24.5849609375,62.7099609375,114.1845703125
55.9501254,24.7802734375,63.9306640625,112.7685546875
55.9920099,23.8525390625,63.3935546875,107.0556640625
56.0080362,23.6572265625,62.3681640625,95.5810546875
56.038058,22.9248046875,61.9287109375,84.7900390625
56.0829342,21.6552734375,61.1474609375,79.5654296875
56.0987866,20.8251953125,60.3662109375,78.9306640625
56.1429077,18.9697265625,58.7548828125,76.9287109375
56.1602027,18.1884765625,57.0947265625,70.2392578125
56.1880491,17.6513671875,56.4111328125,59.5947265625
56.2310729,16.8701171875,54.5556640625,46.8505859375
56.2511527,15.5517578125,53.2373046875,32.7880859375
56.2912123,14.8193359375,51.1376953125,18.4814453125
56.3111387,13.8916015625,49.2333984375,5.8837890625
56.353023,14.1357421875,47.1826171875,-5.9326171875
56.3679912,15.4541015625,44.8876953125,-15.2099609375
56.4000363,18.4814453125,43.4228515625,-23.8525390625
56.4291109,21.2646484375,41.4208984375,-31.7138671875
56.458044,23.1201171875,39.9560546875,-40.0634765625
56.5021324,24.3896484375,38.2470703125,-47.7783203125
56.5176648,25.5615234375,43.5693359375,-19.5556640625
56.5532762,25.8544921875,51.2353515625,52.8076171875
56.5820666,25.8056640625,53.4326171875,88.6474609375
56.6121562,24.6826171875,52.8955078125,103.1005859375
56.6431046,24.0478515625,53.2373046875,105.0537109375
56.6731565,24.2431640625,54.1162109375,102.4658203125
56.7033372,23.9013671875,55.1904296875,100.3173828125
56.7330602,23.5595703125,55.6298828125,96.1669921875
56.7631538,23.0224609375,53.5791015625,85.1318359375
56.7952156,22.6318359375,51.4306640625,71.7041015625
56.8231104,21.5087890625,50.7470703125,63.8427734375
56.8522368,20.1904296875,49.8193359375,61.9384765625
56.8842403,19.1650390625,48.2080078125,60.7666015625
56.9133593,18.2373046875,46.3037109375,57.2998046875
56.942201,17.5537109375,44.7412109375,48.3642578125
56.9751155,16.4794921875,43.2763671875,35.2294921875
57.0031357,14.7705078125,40.8837890625,20.9716796875
57.0333244,14.1845703125,39.2724609375,5.4931640625
57.0823295,13.3056640625,36.9775390625,-7.8369140625
57.1031142,12.7197265625,34.8779296875,-20.5810546875
57.142298,13.1103515625,32.8271484375,-30.9326171875
57.1541531,14.5751953125,30.4345703125,-40.5517578125
57.1824832,18.3349609375,28.7744140625,-49.1455078125
57.2165464,20.2392578125,27.0654296875,-57.5927734375
57.2452453,22.2900390625,25.7958984375,-65.1123046875
57.2745295,22.7783203125,32.7294921875,-27.5634765625
57.3294514,23.4130859375,40.1513671875,44.8486328125
57.3502638,24.0966796875,42.4462890625,77.3681640625
57.3682586,23.2177734375,41.0302734375,88.4033203125
57.411723,22.8271484375,42.7880859375,88.5498046875
57.4313626,23.3154296875,44.3017578125,83.5693359375
57.4532441,21.9482421875,44.6435546875,79.3701171875
57.5043581,22.2900390625,44.2041015625,72.9248046875
57.5234057,22.4853515625,42.1044921875,59.4482421875
57.5616358,20.9716796875,41.6162109375,45.3857421875
57.5815,20.7275390625,41.8603515625,39.8193359375
57.6048271,19.2138671875,42.1533203125,40.0634765625
57.6377712,18.0908203125,42.1533203125,39.8681640625
57.6656215,17.5048828125,41.3232421875,34.2529296875
57.6945984,16.1376953125,40.6884765625,24.6337890625
57.743787,15.3564453125,40.1025390625,11.7431640625
57.7660632,14.3310546875,39.6142578125,-2.6123046875
57.7846011,13.3056640625,38.7353515625,-17.3583984375
57.8347767,12.0361328125,37.2705078125,-30.5908203125
57.8545684,11.2060546875,36.8310546875,-41.2353515625
57.9038812,11.2060546875,34.8779296875,-50.7080078125
57.9227236,13.2568359375,33.6083984375,-58.0810546875
57.9359385,17.0654296875,32.7294921875,-66.7724609375
57.9848175,19.7021484375,31.9482421875,-72.2900390625
57.9977021,20.7763671875,40.4931640625,-25.6591796875
58.0257886,22.0947265625,47.3779296875,42.8466796875
58.0608863,23.0224609375,50.2099609375,73.7548828125
58.0887089,23.3642578125,51.2353515625,84.3017578125
58.1367577,22.3388671875,53.1884765625,83.1298828125
58.1568069,21.3134765625,55.6787109375,80.0048828125
58.1780598,21.5087890625,57.0458984375,76.3916015625
58.2120721,20.9228515625,56.2646484375,70.3369140625
58.2549778,21.2646484375,55.1416015625,57.7392578125
58.2745895,21.3623046875,54.7509765625,45.4345703125
58.3128689,20.7763671875,54.2626953125,40.9423828125
58.3326118,19.6044921875,53.4814453125,39.9658203125
58.3747052,18.5791015625,53.5791015625,39.0380859375
58.3957466,18.2373046875,52.6025390625,34.6435546875
58.4318897,17.2119140625,51.8212890625,26.1474609375
58.45189,16.3330078125,50.7470703125,12.5244140625
58.4969195,15.4052734375,49.6240234375,-0.6591796875
58.5168313,14.4775390625,48.9404296875,-15.3076171875
58.5528729,12.9150390625,48.4033203125,-27.6123046875
58.5725135,12.6708984375,46.8896484375,-37.6220703125
58.6146042,12.6220703125,46.3037109375,-47.2900390625
58.6345146,14.6728515625,44.2041015625,-54.8583984375
58.6766094,17.1142578125,43.8623046875,-62.5732421875
58.6975649,19.8486328125,43.5205078125,-68.9208984375
58.732721,21.6064453125,51.0400390625,-33.0322265625
58.7527494,22.7783203125,59.0966796875,39.8193359375
58.7969486,24.0478515625,63.4423828125,73.4130859375
58.817122,23.5595703125,65.2490234375,87.5244140625
58.8570933,22.7783203125,65.8349609375,89.2822265625
58.8771276,22.8271484375,67.8857421875,86.9873046875
58.9354151,22.3388671875,69.3994140625,84.6435546875
58.9389698,22.5830078125,69.2529296875,81.4208984375
58.9651383,21.5576171875,68.1298828125,70.8740234375
59.0061687,21.6552734375,67.5927734375,59.3505859375
59.0270026,20.1416015625,67.9345703125,51.9287109375
59.0662213,19.8486328125,67.4462890625,50.7080078125
59.0859125,19.1650390625,66.8603515625,50.8056640625
59.1290831,18.0419921875,65.7373046875,47.0458984375
59.1492043,17.2119140625,65.3466796875,38.9404296875
59.1912591,16.2841796875,64.2724609375,27.5634765625
59.2125043,15.5029296875,64.0283203125,14.3310546875
59.2524683,14.1357421875,63.0517578125,0.9521484375
59.2734868,13.1591796875,61.8310546875,-11.7919921875
59.3105192,12.6220703125,61.1474609375,-23.1201171875
59.3302825,12.7197265625,59.9267578125,-31.1767578125
59.3674865,14.0869140625,58.1689453125,-38.9404296875
59.3872699,16.6748046875,56.6552734375,-46.5576171875
59.4333513,19.4091796875,56.0205078125,-55.2978515625
59.452363,21.6552734375,55.5810546875,-58.9599609375
59.4894116,22.8271484375,63.6865234375,-5.6884765625
59.5083233,23.6572265625,69.3994140625,53.9794921875
59.5585729,24.0478515625,71.5966796875,82.2509765625
59.5775163,24.1943359375,71.2060546875,92.8466796875
59.5944377,23.6572265625,71.1572265625,93.0908203125
59.6273734,22.9736328125,71.7431640625,91.2353515625
59.6563411,22.3876953125,71.8408203125,88.4521484375
59.7035504,21.8017578125,71.4990234375,84.3505859375
59.723458,21.8994140625,68.3740234375,71.8017578125
59.7585598,22.0458984375,66.8115234375,60.2294921875
59.7784902,19.9462890625,66.2744140625,54.0771484375
59.822621,19.3115234375,64.7119140625,53.0029296875
59.8426628,18.4814453125,62.0263671875,53.0029296875
59.8802566,18.1396484375,59.4384765625,47.4853515625
59.900838,16.6259765625,56.5087890625,38.0126953125
59.9441584,15.9912109375,55.1416015625,25.8056640625
59.9652695,15.2099609375,53.2373046875,11.8408203125
60.003262,14.3310546875,51.2841796875,-2.5634765625
60.0230336,12.9638671875,50.0146484375,-15.8447265625
60.0651561,11.8408203125,47.9150390625,-26.6357421875
60.0859864,11.4990234375,46.7431640625,-35.1318359375
60.1239945,13.6474609375,44.7412109375,-42.9931640625
60.1480005,16.3330078125,43.1298828125,-52.4658203125
60.1859096,18.9697265625,41.6650390625,-58.4716796875
60.2050525,20.7763671875,48.4033203125,-25.0244140625
60.2482293,21.9970703125,54.1650390625,43.2861328125
60.2681166,23.2177734375,55.8740234375,74.9267578125
60.3060679,23.9501953125,54.6044921875,87.9638671875
60.3259879,23.7060546875,55.6787109375,87.4267578125
60.3671778,22.8759765625,56.1669921875,83.9599609375
60.3820317,22.2900390625,56.5576171875,80.4931640625
60.4260603,21.7529296875,54.1650390625,73.9990234375
60.4462149,21.6552734375,52.1630859375,60.7177734375
60.4891614,21.6552734375,51.4794921875,48.1689453125
60.4997287,21.1669921875,50.2587890625,44.0185546875
60.5474057,19.7998046875,50.0634765625,44.0673828125
60.5679162,19.0185546875,48.0615234375,44.5556640625
60.6082926,17.9443359375,46.6455078125,39.8681640625
60.6281561,17.7978515625,45.0830078125,30.7861328125
60.6651519,16.0888671875,43.7646484375,18.0419921875
60.6851696,15.4541015625,41.9091796875,4.9560546875
60.7263847,14.2333984375,40.3466796875,-7.9833984375
60.7454016,13.3544921875,39.0771484375,-19.8974609375
60.7875607,12.0361328125,38.5888671875,-28.9794921875
60.8082191,12.4267578125,36.9287109375,-37.5732421875
60.8493854,12.8173828125,36.4892578125,-46.1669921875
60.8663639,15.1611328125,36.8310546875,-49.0966796875
60.8945277,17.9931640625,45.5224609375,-2.4658203125
60.9235367,20.0927734375,51.4794921875,55.1025390625
60.9694887,21.5576171875,53.9697265625,82.6416015625
60.9894393,22.4365234375,53.9208984375,93.1396484375
61.0145333,22.4853515625,56.0693359375,91.9677734375
61.0455245,23.3154296875,58.5595703125,88.7451171875
61.0725871,21.8017578125,58.5107421875,86.3037109375
61.1087147,21.4111328125,57.4365234375,78.6865234375
61.1508718,20.4345703125,56.1181640625,64.6240234375
61.1697894,20.7275390625,55.5322265625,54.9072265625
61.2086202,20.5810546875,54.6533203125,53.0029296875
61.225416,19.5068359375,54.6044921875,53.3447265625
61.2590769,19.2626953125,53.7744140625,52.6611328125
61.3026893,19.1162109375,52.6025390625,46.8994140625
61.3157081,18.0908203125,52.4072265625,35.6689453125
61.3618105,16.8212890625,51.4794921875,23.5107421875
61.3766745,16.2353515625,50.0634765625,9.5947265625
61.4047161,15.7470703125,50.5029296875,-3.6865234375
61.438724,14.3798828125,49.7216796875,-14.6728515625
61.4676926,14.1845703125,48.4521484375,-25.2197265625
61.4966806,13.5986328125,47.2802734375,-31.6650390625
61.5297137,14.5263671875,46.2548828125,-39.8681640625
61.5576709,16.1865234375,44.9365234375,-48.3154296875
61.5847146,19.3115234375,51.2841796875,-24.2431640625
61.631825,21.3623046875,58.9990234375,45.2392578125
61.645678,22.1435546875,63.1494140625,81.1279296875
61.6807508,23.3642578125,64.2236328125,98.0224609375
61.7076708,24.7314453125,66.5673828125,101.0986328125
61.7378352,24.0966796875,67.8857421875,100.0244140625
61.7707683,22.8759765625,69.7412109375,98.5595703125
61.7997312,22.4853515625,70.6201171875,95.9228515625
61.8317738,22.6318359375,69.2529296875,85.7177734375
61.8607314,22.0458984375,68.7158203125,73.1201171875
61.8878957,21.7529296875,68.2763671875,66.7724609375
61.9219551,20.3857421875,68.1298828125,66.1376953125
61.9520098,19.7021484375,67.2021484375,65.5517578125
61.9798554,19.7021484375,65.8349609375,61.5478515625
62.0118053,18.2861328125,65.1513671875,53.3447265625
62.040777,17.6513671875,64.4189453125,41.6748046875
62.0688539,16.3330078125,63.7841796875,28.4912109375
62.1028236,16.5283203125,62.9052734375,15.0634765625
62.1299514,15.4541015625,61.6845703125,2.3681640625
62.1608867,15.1123046875,60.3662109375,-8.3251953125
62.1931866,14.3310546875,59.0478515625,-16.7236328125
62.2212058,13.6474609375,57.9736328125,-24.6826171875
62.255056,15.9912109375,57.4365234375,-32.3486328125
62.2830625,18.2861328125,56.6552734375,-40.4052734375
62.3109392,20.6298828125,61.0498046875,-26.4892578125
62.3399544,22.1435546875,68.5693359375,43.3349609375
62.3718665,23.7548828125,73.8427734375,84.1552734375
62.4009714,24.7802734375,74.9169921875,104.9560546875
62.4339706,24.8779296875,75.6982421875,110.1318359375
