Timestamp,PPG_Forehead,PPG_Earlobe,PPG_Finger
0.0146959999999998,0.185546875,0.185546875,0.185546875
0.0267761000000002,0.185546875,0.185546875,0.185546875
0.0306731999999998,0.185546875,0.185546875,0.185546875
0.0339771,0.185546875,0.185546875,0.185546875
0.0393107000000001,0.185546875,0.185546875,0.185546875
0.0429122999999998,0.185546875,0.185546875,0.185546875
0.0452791000000001,92.3681640625,86.2646484375,82.3583984375
0.0463737000000002,57.6025390625,4.5361328125,-38.0615234375
0.047412,56.6259765625,4.4873046875,-41.8701171875
0.0486097000000001,54.4775390625,3.5107421875,-45.7763671875
0.0496541000000001,53.2080078125,3.1689453125,-49.3408203125
0.0512863000000001,51.5966796875,3.0712890625,-49.6337890625
0.0536226000000002,49.7412109375,2.7783203125,-41.9189453125
0.0552006,48.2763671875,4.5361328125,-25.8544921875
0.0564873000000001,46.2744140625,6.6357421875,-12.2314453125
0.0574940000000002,45.5419921875,7.0751953125,-1.4404296875
0.0590451999999999,44.2236328125,8.5400390625,5.2490234375
0.0600706,42.6611328125,10.2001953125,11.4501953125
0.0615651000000002,41.5869140625,10.2978515625,14.4287109375
0.0627922000000001,40.2685546875,12.4462890625,13.0126953125
0.0638523000000002,40.5615234375,11.7138671875,8.9599609375
0.0656154,45.8349609375,12.3486328125,6.0302734375
0.0667141,50.6201171875,13.0322265625,3.1982421875
0.068918,53.4521484375,12.6416015625,1.2451171875
0.0704406999999998,55.3564453125,12.3486328125,-0.3173828125
0.072225,57.1142578125,11.9091796875,-3.8330078125
0.0733136999999999,58.4814453125,11.8115234375,-7.2021484375
0.0744248000000001,59.7998046875,11.3232421875,-11.2548828125
0.0758614,60.0927734375,10.3955078125,-15.0146484375
0.0768662999999998,59.7021484375,9.9072265625,-19.5068359375
0.0783127000000001,58.9697265625,9.9560546875,-22.6318359375
0.0795376000000001,59.0185546875,8.7841796875,-26.1474609375
0.0840068999999999,58.8720703125,8.3935546875,-29.4677734375
0.0853191999999998,57.9931640625,8.2470703125,-31.9091796875
0.0865224000000002,56.8701171875,7.3681640625,-36.1083984375
0.0879020000000001,55.7958984375,6.8310546875,-39.4287109375
0.0889153,53.8427734375,5.4150390625,-41.8212890625
0.0903931999999998,52.6220703125,4.7314453125,-38.5009765625
0.0916119000000002,51.5966796875,5.8544921875,-25.9521484375
0.0926737000000002,50.4736328125,6.9775390625,-11.6455078125
0.0942932999999999,49.1552734375,7.3681640625,0.4150390625
0.095383,48.1787109375,8.0029296875,8.9111328125
0.0970333999999999,46.5673828125,10.2978515625,15.6982421875
0.0980767,45.5419921875,10.4443359375,19.3603515625
0.0993487000000002,44.5654296875,10.8349609375,19.7998046875
0.1007522,43.4423828125,11.5673828125,17.6513671875
0.1019333,46.5185546875,11.1767578125,13.8427734375
0.1035513,51.1572265625,11.1279296875,11.2548828125
0.1048207,54.1845703125,10.4931640625,8.1787109375
0.106178,57.5048828125,10.4443359375,5.9814453125
0.1071109,58.9697265625,9.7607421875,3.3935546875
0.1080312,60.7763671875,9.6630859375,-0.1220703125
0.1089802,62.8271484375,8.8818359375,-4.1259765625
0.1099017,63.1689453125,8.7353515625,-7.7880859375
0.110853,63.7548828125,7.6123046875,-11.6943359375
0.1117859,63.3154296875,6.4892578125,-15.4052734375
0.1127198,63.8037109375,6.0498046875,-19.5556640625
0.1136449,63.0712890625,5.4150390625,-22.8271484375
0.114577,63.0712890625,4.7314453125,-26.0986328125
0.115502,62.0947265625,3.7060546875,-29.2236328125
0.1164318,60.7275390625,3.0712890625,-32.8857421875
0.117388,59.3115234375,1.8017578125,-36.7919921875
0.1183257,58.2861328125,1.1669921875,-38.8916015625
0.1194118,56.5771484375,0.9228515625,-33.8623046875
0.1206448,55.4541015625,1.3623046875,-22.4365234375
0.1217809,54.4775390625,2.2900390625,-9.5947265625
0.1229029,53.3056640625,3.6572265625,2.2216796875
0.1240515,52.2802734375,4.6337890625,10.1318359375
0.1251947,50.4736328125,5.4638671875,16.0400390625
0.1263629,48.8623046875,6.4892578125,20.4345703125
0.1274431,47.7880859375,6.7822265625,22.4365234375
0.1285674,47.2998046875,7.8076171875,19.4091796875
0.1294934,49.6923828125,7.1240234375,15.2587890625
0.1304267,54.9169921875,7.7099609375,12.9638671875
0.1313896,57.5048828125,7.4658203125,10.6689453125
0.1323085,59.4091796875,7.2216796875,7.4462890625
0.1332408,61.9970703125,7.1240234375,4.8095703125
0.1341616,64.4873046875,6.3427734375,1.9775390625
0.1354184,66.2939453125,5.9033203125,-1.7333984375
0.1366759,66.6357421875,4.2431640625,-6.6162109375
0.1378132,66.8798828125,3.9501953125,-10.7666015625
0.1389354,65.9033203125,2.8271484375,-14.6728515625
0.1400855,66.2939453125,2.6318359375,-18.9208984375
0.1412294,65.9521484375,2.3388671875,-22.5341796875
0.1424061,66.0009765625,0.4345703125,-26.8798828125
0.1436077,64.1943359375,-0.1513671875,-30.0048828125
0.1448244,63.0224609375,-0.6396484375,-33.2275390625
0.1458299,61.3134765625,-1.7138671875,-37.2802734375
0.146801,60.4345703125,-2.5927734375,-40.8447265625
0.1477203,58.3837890625,-3.1787109375,-44.8486328125
0.1486443,56.9189453125,-3.8623046875,-42.7978515625
0.1495684,55.6982421875,-3.6181640625,-33.0322265625
0.1505446,54.5263671875,-2.9345703125,-22.2412109375
0.1515394,53.1591796875,-1.7138671875,-12.3779296875
0.1525041,51.8408203125,-0.5419921875,-6.0302734375
0.1534248,50.6201171875,0.3369140625,-1.0986328125
0.1543383,49.3994140625,1.1669921875,2.4658203125
0.1552586,48.1298828125,1.8017578125,4.0771484375
0.1561844,47.0556640625,2.8271484375,2.5634765625
0.1570983,48.2763671875,1.7041015625,-0.5615234375
0.1580298,53.5009765625,2.0458984375,-3.5888671875
0.1589477,57.7978515625,2.5830078125,-5.5908203125
0.1598711,60.1416015625,1.2158203125,-8.6181640625
0.1608168,62.4365234375,1.4599609375,-11.4013671875
0.161792,64.9755859375,1.0693359375,-13.8916015625
0.1627122,66.5869140625,1.4599609375,-18.0419921875
0.1636471,67.7587890625,0.5810546875,-21.8017578125
0.164565,67.6123046875,0.2880859375,-26.0009765625
0.1655692,67.6611328125,-0.9326171875,-29.4677734375
0.1665068,67.4658203125,-1.6162109375,-33.6669921875
0.1674367,67.1728515625,-2.3486328125,-37.2314453125
0.1683763,66.5869140625,-3.1298828125,-41.2353515625
0.169314,65.1708984375,-3.6181640625,-45.3369140625
0.1702323,63.9013671875,-4.4482421875,-48.9013671875
0.1711707,62.3876953125,-4.8876953125,-52.1240234375
0.1721088,60.7763671875,-5.8642578125,-55.9814453125
0.1730221,59.1162109375,-6.3525390625,-60.7666015625
0.1739357,57.3583984375,-7.2314453125,-63.8916015625
0.1748872,55.7958984375,-8.1103515625,-64.9169921875
0.175806,53.5986328125,-7.3779296875,-59.7412109375
0.1767207,52.6220703125,-5.6689453125,-52.3681640625
0.1776505,50.7666015625,-5.7666015625,-45.0439453125
0.1785672,48.7158203125,-4.3505859375,-39.1845703125
0.1795419,48.3251953125,-3.8623046875,-34.3017578125
0.180484,46.4208984375,-2.4462890625,-32.3486328125
0.1814079,44.5166015625,-1.1767578125,-29.1748046875
0.1823952,43.9306640625,-1.2255859375,-29.6630859375
0.1833445,43.0517578125,-1.6650390625,-32.1533203125
0.1842752,45.8837890625,-1.6650390625,-34.9365234375
0.1851941,51.7431640625,-1.0791015625,-36.4990234375
0.1861281,55.6005859375,-1.8115234375,-37.6708984375
0.1870557,58.6279296875,-1.3232421875,-39.5263671875
0.1879785,60.4833984375,-1.6162109375,-42.2119140625
0.1889364,62.4853515625,-2.2021484375,-44.8974609375
0.1898878,63.7060546875,-2.6416015625,-48.3154296875
0.1908258,64.6337890625,-3.4716796875,-51.4892578125
0.1917729,64.3408203125,-3.8134765625,-54.5654296875
0.1926944,63.8037109375,-4.0087890625,-58.4716796875
0.193627,63.1201171875,-5.4248046875,-61.1083984375
0.1945518,62.9248046875,-5.8154296875,-64.2822265625
0.1954911,62.6318359375,-6.4990234375,-67.6025390625
0.1964377,61.0205078125,-6.8896484375,-70.3857421875
0.1973701,60.4345703125,-7.6220703125,-73.5595703125
0.1983252,58.6279296875,-8.5986328125,-76.9775390625
0.1992596,56.8701171875,-9.2822265625,-80.1025390625
0.2002041,54.3798828125,-9.6728515625,-83.3251953125
0.2011277,53.4521484375,-11.4794921875,-85.4248046875
0.202064,52.6708984375,-11.2353515625,-82.1533203125
0.2029957,51.2060546875,-9.6240234375,-75.1220703125
0.203929,49.6435546875,-9.8681640625,-68.5791015625
0.2048591,47.7880859375,-8.9404296875,-62.5244140625
0.2057793,46.7626953125,-8.5986328125,-59.2041015625
0.2067079,45.4443359375,-8.2080078125,-56.2255859375
0.2076394,44.7607421875,-7.7197265625,-53.9794921875
0.208582,43.9306640625,-7.7197265625,-53.6376953125
0.2094992,43.4423828125,-7.3779296875,-55.8349609375
0.2104328,43.6376953125,-8.1591796875,-57.2021484375
0.2113533,49.0087890625,-7.7197265625,-58.6669921875
0.2122745,53.6962890625,-8.3056640625,-58.7158203125
0.2132073,56.5771484375,-8.8427734375,-60.6201171875
0.2141322,59.0185546875,-8.9404296875,-62.5244140625
0.2150598,60.3857421875,-9.4287109375,-65.0146484375
0.2159916,62.4365234375,-10.8935546875,-67.8466796875
0.2169102,62.3388671875,-10.9423828125,-70.2392578125
0.2178403,62.9736328125,-11.6259765625,-73.3154296875
0.2187937,62.3388671875,-12.3095703125,-75.7568359375
0.2197511,62.6318359375,-12.7490234375,-77.8076171875
0.2206765,62.6806640625,-14.0673828125,-81.0302734375
0.2216471,60.9228515625,-14.5556640625,-83.6669921875
0.2225693,60.7275390625,-14.8486328125,-86.5966796875
0.223489,59.6044921875,-15.3369140625,-89.1845703125
0.2244172,58.5302734375,-16.7529296875,-91.8701171875
0.2253507,56.7236328125,-16.8505859375,-94.0673828125
0.2262782,55.3076171875,-18.0224609375,-97.3388671875
0.2272383,53.6474609375,-18.6083984375,-99.1943359375
0.2281575,52.1337890625,-18.8525390625,-95.7275390625
0.2290807,50.8642578125,-17.8759765625,-87.6220703125
0.230092,49.8388671875,-17.7294921875,-79.4677734375
0.2310302,48.8623046875,-16.8017578125,-74.0966796875
0.2319618,47.4951171875,-15.2392578125,-67.8955078125
0.2328909,46.0302734375,-15.5810546875,-62.4267578125
0.2338197,44.7119140625,-14.8486328125,-59.7900390625
0.2347447,43.4423828125,-13.9208984375,-58.0322265625
0.2356782,42.7099609375,-13.0908203125,-59.2041015625
0.2365981,43.1982421875,-13.6279296875,-60.2783203125
0.237519,47.8369140625,-13.8720703125,-60.8154296875
0.2384509,52.7197265625,-13.5302734375,-61.2548828125
0.239374,55.8447265625,-13.9208984375,-62.2802734375
0.2402948,58.4326171875,-14.2626953125,-63.9404296875
0.2412311,60.6298828125,-14.1162109375,-65.9912109375
0.2421554,61.7041015625,-13.6767578125,-68.3349609375
0.2430869,63.3642578125,-15.3369140625,-71.1181640625
0.2440149,64.0966796875,-14.8974609375,-74.0478515625
0.2449359,64.1943359375,-16.2158203125,-76.4892578125
0.2461819,63.4619140625,-16.6552734375,-79.3701171875
0.2474144,62.7783203125,-16.9970703125,-81.8603515625
0.2485673,62.8271484375,-17.5341796875,-84.7900390625
0.2497045,61.6064453125,-18.0712890625,-86.4990234375
0.2509461,59.9462890625,-18.0712890625,-89.3310546875
0.2521657,58.8232421875,-18.6572265625,-92.0654296875
0.2534022,57.6025390625,-19.3408203125,-95.4833984375
0.2546387,55.6005859375,-20.4150390625,-97.3876953125
0.2558588,54.0869140625,-20.8544921875,-98.0224609375
0.2570116,52.7197265625,-20.7080078125,-92.9443359375
0.2579944,51.7431640625,-18.7060546875,-83.2275390625
0.2589236,49.9853515625,-18.2666015625,-74.5361328125
0.259853,49.1552734375,-17.8271484375,-66.4306640625
0.2607797,47.2509765625,-16.7041015625,-60.2783203125
0.2617335,45.9326171875,-16.2158203125,-55.2978515625
0.2626942,44.5654296875,-15.1416015625,-51.4892578125
0.2636222,43.7353515625,-13.9697265625,-50.4638671875
0.2646421,42.8564453125,-14.0185546875,-52.6123046875
0.2655947,42.6123046875,-14.3603515625,-53.9306640625
0.2665193,48.6669921875,-13.2861328125,-55.3955078125
0.2674685,53.5009765625,-12.8955078125,-55.8349609375
0.2683934,56.3818359375,-13.1396484375,-57.8857421875
0.2693144,58.7255859375,-13.0419921875,-59.2529296875
0.270239,60.4833984375,-13.3349609375,-61.4990234375
0.271281,62.8271484375,-13.7255859375,-64.3798828125
0.2722696,63.3642578125,-13.4326171875,-66.9677734375
0.2817877,63.6572265625,-14.1650390625,-69.9462890625
0.3295523,63.6572265625,-14.5556640625,-72.6806640625
0.3480093,62.9248046875,-14.5556640625,-75.3662109375
0.3900972,62.9248046875,-15.7763671875,-78.9306640625
0.4123331,62.3388671875,-16.0693359375,-81.3720703125
0.4286272,61.1669921875,-16.1181640625,-84.4482421875
0.479375,60.6787109375,-16.3134765625,-86.4990234375
0.4992272,58.6279296875,-16.5087890625,-89.8193359375
0.5364131,56.7236328125,-17.2900390625,-93.3349609375
0.556318,54.7705078125,-17.6318359375,-95.3369140625
0.5804367,53.5498046875,-18.0712890625,-93.2373046875
0.6317597,52.0361328125,-16.9482421875,-84.8388671875
0.6425811,51.2060546875,-15.4345703125,-74.8291015625
0.6891764,49.8388671875,-14.5556640625,-65.8935546875
0.708142,48.3251953125,-13.3837890625,-59.6435546875
0.7431519,46.2744140625,-12.1630859375,-54.4189453125
0.7673688,45.2490234375,-11.1376953125,-50.5615234375
0.8102002,43.9306640625,-10.4541015625,-49.3896484375
0.8302031,43.4912109375,-9.4287109375,-50.8056640625
0.8693485,41.7333984375,-9.4287109375,-53.1494140625
0.8903851,43.8818359375,-9.5263671875,-54.3701171875
0.9274397,50.3759765625,-8.5498046875,-55.5908203125
0.9473105,53.9404296875,-8.7939453125,-57.3486328125
0.9863906,57.1142578125,-8.1591796875,-59.1552734375
1.0074687,59.7998046875,-8.4033203125,-61.2060546875
1.0367505,61.3134765625,-9.3798828125,-63.7939453125
1.0646839,62.4365234375,-8.3544921875,-66.5283203125
1.0946619,63.6083984375,-8.9404296875,-69.8974609375
1.1266807,63.5107421875,-8.7939453125,-73.2177734375
1.1557466,63.0224609375,-8.7939453125,-75.9521484375
1.1988352,63.1689453125,-9.9658203125,-78.8818359375
1.2194445,62.2900390625,-9.9169921875,-81.1767578125
1.2596111,61.6064453125,-10.7958984375,-84.1552734375
1.2795065,61.0205078125,-11.6748046875,-87.0361328125
1.3145557,59.8486328125,-10.7958984375,-90.1123046875
1.3345492,58.6279296875,-12.1630859375,-92.5048828125
1.3776839,56.8212890625,-12.7490234375,-94.2626953125
1.3965704,55.6982421875,-13.0419921875,-88.9404296875
1.4407106,53.9892578125,-12.0166015625,-79.4677734375
1.4697301,52.7197265625,-10.8935546875,-69.8974609375
1.4876223,51.1572265625,-10.8935546875,-61.7431640625
1.5204895,50.1318359375,-9.2333984375,-55.6396484375
1.5657231,49.2529296875,-7.7685546875,-51.3427734375
1.5855678,48.1298828125,-8.0126953125,-50.0244140625
1.6227388,46.8603515625,-6.1083984375,-49.4384765625
1.6427953,45.8349609375,-6.5478515625,-52.4169921875
1.6809518,44.9072265625,-6.4990234375,-54.2236328125
1.7019151,48.3251953125,-4.9853515625,-55.9326171875
1.7411129,53.9404296875,-5.1318359375,-57.1044921875
1.7620892,57.0166015625,-5.4248046875,-59.7412109375
1.7984416,59.7998046875,-5.1318359375,-61.9384765625
1.8183511,61.7041015625,-4.9365234375,-63.9404296875
1.8605932,63.1689453125,-5.8642578125,-67.6513671875
1.8828016,64.0478515625,-5.5712890625,-71.0205078125
1.9205616,63.9013671875,-6.4990234375,-74.3896484375
1.9405406,63.8037109375,-6.7919921875,-77.8076171875
1.9797376,63.7060546875,-7.1826171875,-81.1279296875
2.0034579,63.5595703125,-7.8173828125,-83.6669921875
2.0381934,62.6806640625,-7.3291015625,-86.6943359375
2.058517,62.4365234375,-8.5498046875,-89.7216796875
2.105755,61.5087890625,-8.8427734375,-93.2861328125
2.1256295,60.1416015625,-8.9892578125,-95.7763671875
2.1667381,58.3349609375,-9.9658203125,-97.5341796875
2.1857992,57.1630859375,-10.2587890625,-94.1650390625
2.2256541,55.6005859375,-8.8427734375,-83.5205078125
2.2497014,54.0869140625,-7.5732421875,-72.5830078125
2.2887576,53.2568359375,-6.1083984375,-62.8662109375
2.3076554,52.0849609375,-5.3271484375,-55.0537109375
2.3447769,50.9130859375,-3.7158203125,-50.0732421875
2.364694,49.1552734375,-2.5927734375,-46.0205078125
2.4018894,48.1298828125,-1.5185546875,-44.3115234375
2.4248571,46.5185546875,-0.1513671875,-46.0693359375
2.4619684,46.7138671875,-0.1025390625,-48.9501953125
2.4810153,48.3740234375,0.3369140625,-50.8544921875
2.5351736,54.0380859375,0.3857421875,-52.8564453125
2.5550899,57.9443359375,0.7763671875,-54.5654296875
2.575178,59.5556640625,0.5810546875,-57.1044921875
2.6152825,62.5830078125,0.3857421875,-59.6923828125
2.6351967,63.7548828125,0.8740234375,-63.4033203125
2.680394,65.4638671875,0.7275390625,-66.0400390625
2.7115133,67.2216796875,0.2392578125,-69.4580078125
2.7243642,67.1240234375,-0.2001953125,-73.0224609375
2.768478,66.7822265625,-0.9814453125,-76.3916015625
2.787331,67.3193359375,-1.1767578125,-79.4189453125
2.8273872,67.2216796875,-1.7626953125,-82.9345703125
2.8484255,66.2451171875,-2.2998046875,-85.7177734375
2.8876308,65.6591796875,-2.2998046875,-89.5263671875
2.9087735,64.2431640625,-2.5439453125,-92.3095703125
2.9468922,63.8037109375,-3.9111328125,-94.9951171875
2.9669133,62.4365234375,-3.7646484375,-93.7255859375
3.0080393,60.8740234375,-2.9833984375,-85.6201171875
3.0269709,59.3115234375,-1.1767578125,-74.0966796875
3.067012,57.7001953125,-0.7861328125,-64.3798828125
3.0881926,57.3095703125,1.1181640625,-56.2255859375
3.1282042,55.9423828125,2.6318359375,-50.7080078125
3.1480938,54.7705078125,3.4619140625,-46.2158203125
3.1852168,53.0126953125,5.5615234375,-44.2626953125
3.2060809,51.6455078125,6.0009765625,-45.8740234375
3.2502222,50.8154296875,6.0009765625,-48.3154296875
3.2700989,50.5712890625,6.6357421875,-52.0751953125
3.312221,55.5029296875,7.2705078125,-53.2958984375
3.3314725,59.8486328125,7.4169921875,-55.6396484375
3.3691104,61.8505859375,7.5146484375,-58.5205078125
3.3890257,64.1455078125,7.7587890625,-61.5478515625
3.4322787,66.2451171875,7.0751953125,-64.9658203125
3.4500899,68.7353515625,7.4658203125,-68.8232421875
3.4914598,70.2978515625,7.3193359375,-72.8271484375
3.5117983,70.2490234375,6.5869140625,-76.3427734375
3.5484505,70.0537109375,6.3916015625,-79.7119140625
3.5704103,69.4677734375,6.3916015625,-83.3740234375
3.6134836,69.5654296875,5.3662109375,-86.4501953125
3.6326239,69.9072265625,5.1220703125,-89.8193359375
3.6701843,68.3447265625,4.5361328125,-93.2861328125
3.6912377,67.2705078125,4.1943359375,-96.5576171875
3.7314726,66.0009765625,2.9248046875,-99.3896484375
3.7512478,64.0966796875,2.9248046875,-101.8310546875
3.7826401,63.5595703125,2.8271484375,-98.0224609375
3.8229832,61.4599609375,4.1455078125,-89.6240234375
3.8445955,60.3857421875,5.1708984375,-80.8349609375
3.912203,58.5791015625,6.2451171875,-73.1201171875
3.9143652,57.3095703125,7.5634765625,-67.1142578125
3.9308955,55.8935546875,8.8818359375,-62.3779296875
3.972802,54.7216796875,9.4677734375,-59.9853515625
3.9952149,53.2568359375,10.8837890625,-60.2294921875
4.0342514,52.4267578125,11.2744140625,-62.4267578125
4.0653751,50.7177734375,11.5673828125,-65.1123046875
4.0843953,52.7197265625,10.9326171875,-67.4560546875
4.1116617,57.8466796875,11.4697265625,-69.0673828125
4.1416806,61.2158203125,11.2744140625,-71.5087890625
4.1906355,63.9013671875,11.6162109375,-73.5107421875
4.2231861,66.0009765625,10.8349609375,-77.2705078125
4.2347236,67.2216796875,10.4443359375,-80.5908203125
4.2738645,69.4189453125,9.6630859375,-83.4716796875
4.2948878,69.9072265625,9.1259765625,-87.8173828125
4.3371442,70.9814453125,8.4423828125,-90.3564453125
4.3529578,70.4931640625,8.2958984375,-94.0185546875
4.3960909,70.7861328125,7.0263671875,-96.8017578125
4.4160056,70.3955078125,6.5869140625,-100.8056640625
4.4441169,69.1748046875,4.8291015625,-103.2958984375
4.4860944,68.8330078125,4.6826171875,-106.3232421875
4.5039968,68.2958984375,4.0966796875,-109.8388671875
4.5321265,66.5869140625,2.7783203125,-112.5244140625
4.5772776,65.6591796875,1.9970703125,-114.3798828125
4.5938357,63.8525390625,1.8017578125,-109.8388671875
4.6236667,62.5341796875,3.3154296875,-102.6123046875
4.6672781,61.5576171875,3.7060546875,-94.4580078125
4.6871566,60.6298828125,4.4384765625,-88.5009765625
4.7153499,59.4580078125,5.7080078125,-82.8369140625
4.7461685,58.1884765625,6.2451171875,-79.0283203125
4.7752429,56.5283203125,7.3193359375,-77.2705078125
4.8062309,55.4052734375,8.0517578125,-77.8076171875
4.8381277,53.8427734375,8.2958984375,-78.9794921875
4.868209,53.2568359375,7.3681640625,-81.3720703125
4.8992517,54.0869140625,8.2958984375,-82.8369140625
4.9283258,58.6767578125,7.9052734375,-84.0576171875
4.9653433,62.1435546875,7.3193359375,-86.4990234375
4.9893422,64.5361328125,6.8798828125,-88.3056640625
5.0183808,67.2705078125,5.9521484375,-90.8447265625
5.0462225,68.8818359375,5.5126953125,-93.7744140625
5.096313,70.6884765625,5.0244140625,-96.3134765625
5.1164416,71.9091796875,4.3408203125,-98.9990234375
5.1388718,72.2021484375,4.0966796875,-102.0751953125
5.1864776,72.3486328125,2.9248046875,-104.5166015625
5.2064127,71.9091796875,1.8505859375,-107.9345703125
5.2293353,71.8115234375,1.0205078125,-110.4248046875
5.2774888,70.8349609375,1.1181640625,-112.9638671875
5.2962859,70.1513671875,-0.2490234375,-115.6982421875
5.31633,68.9794921875,-1.3232421875,-117.9931640625
5.3494314,67.7587890625,-1.8115234375,-120.7275390625
5.3794679,66.2451171875,-1.9580078125,-123.4130859375
5.4104008,64.5849609375,-3.4716796875,-121.4599609375
5.438419,62.9736328125,-2.1044921875,-115.2099609375
5.497787,61.6064453125,-2.0068359375,-104.9560546875
5.5163775,60.6787109375,-1.5185546875,-97.9736328125
5.5285198,59.2138671875,-0.7373046875,-91.3818359375
5.5776661,57.6025390625,0.6787109375,-86.2060546875
5.5966874,56.1865234375,0.9716796875,-82.1533203125
5.620658,54.4775390625,2.0947265625,-80.2490234375
5.6547321,53.6962890625,3.2666015625,-80.6884765625
5.6817716,52.8662109375,2.9736328125,-82.2509765625
5.7100176,52.1337890625,2.7783203125,-84.1064453125
5.7427454,55.6982421875,3.4130859375,-86.0107421875
5.7717632,60.0927734375,2.4365234375,-87.3779296875
5.8009803,63.2177734375,2.3876953125,-89.1357421875
5.8613905,65.5126953125,2.2900390625,-91.6748046875
5.8648132,67.5634765625,2.1435546875,-94.3115234375
5.8922715,69.9560546875,1.6552734375,-97.0458984375
5.9403643,71.9091796875,1.4599609375,-100.1708984375
5.9605407,72.2998046875,0.5322265625,-103.3935546875
5.998561,72.6904296875,-0.3466796875,-105.8837890625
6.0135256,72.1533203125,-0.3466796875,-108.6669921875
6.0555776,72.2509765625,-1.3720703125,-111.6455078125
6.0754877,71.6650390625,-2.1044921875,-114.3310546875
6.1167185,71.0302734375,-2.8857421875,-116.8212890625
6.1369961,69.9560546875,-4.1552734375,-119.7021484375
6.1648485,68.5888671875,-4.4482421875,-122.6806640625
6.1941938,67.3193359375,-5.0830078125,-126.1474609375
6.2213398,65.7080078125,-5.7177734375,-128.1005859375
6.2540299,63.5595703125,-6.4990234375,-126.7822265625
6.2990469,61.7041015625,-6.0107421875,-120.4833984375
6.319003,60.5810546875,-4.8388671875,-111.9873046875
6.3571955,58.5791015625,-4.5947265625,-103.2470703125
6.3773443,57.3583984375,-3.1298828125,-97.0458984375
6.4135181,55.9912109375,-2.5927734375,-91.8212890625
6.433462,53.7451171875,-2.1533203125,-87.4755859375
6.4766728,52.7197265625,-0.7861328125,-85.4736328125
6.4964893,51.8408203125,-1.2255859375,-85.3759765625
6.5396321,50.2783203125,-0.4443359375,-87.0849609375
6.5597865,50.1318359375,-1.3232421875,-88.1591796875
6.5997522,51.0595703125,-0.8837890625,-89.8193359375
6.6188235,56.5771484375,-1.3720703125,-91.3818359375
6.6619757,60.3369140625,-1.1767578125,-92.7978515625
6.68103,62.5830078125,-1.1767578125,-94.7021484375
6.720328,65.4150390625,-2.1044921875,-97.0458984375
6.7423008,67.2705078125,-2.3486328125,-99.2431640625
6.7792291,69.4189453125,-3.3740234375,-102.6123046875
6.8001783,70.1025390625,-3.0810546875,-105.4443359375
6.8526311,70.4931640625,-4.2041015625,-108.6669921875
6.8726196,70.6396484375,-5.8642578125,-110.5224609375
6.8883686,70.5908203125,-5.8154296875,-113.5498046875
6.9312356,70.0537109375,-6.4501953125,-115.9912109375
6.952066,69.1748046875,-7.5732421875,-118.4326171875
6.9872768,67.8076171875,-8.0126953125,-120.9716796875
7.0096553,67.3681640625,-8.7939453125,-123.4619140625
7.0583976,66.1962890625,-10.4541015625,-125.9033203125
7.0772426,64.5361328125,-10.6494140625,-128.5888671875
7.1153817,61.9970703125,-11.4794921875,-128.1982421875
7.1352886,60.8740234375,-11.3818359375,-120.7275390625
7.1767541,59.6044921875,-10.2587890625,-111.7919921875
7.1965992,58.7744140625,-9.9169921875,-103.2470703125
7.2335536,57.1630859375,-9.7705078125,-96.9970703125
7.2543876,55.3564453125,-8.9404296875,-91.9189453125
7.2925476,54.0869140625,-8.9404296875,-88.0615234375
7.312366,52.5732421875,-9.0869140625,-86.5478515625
7.3503216,51.9384765625,-7.7197265625,-86.8896484375
7.3712603,50.7666015625,-8.1591796875,-89.4775390625
7.4113105,49.7412109375,-8.4033203125,-90.7470703125
7.4292898,49.7412109375,-8.5009765625,-92.6513671875
7.4733604,55.4541015625,-9.1845703125,-93.2861328125
7.4934086,59.3603515625,-9.5751953125,-95.3857421875
7.5355492,62.4853515625,-9.9658203125,-97.6318359375
7.5555483,65.2197265625,-9.7216796875,-99.8779296875
7.5926756,66.2451171875,-10.8935546875,-101.8798828125
7.6138231,68.1005859375,-11.1865234375,-104.6630859375
7.6570916,68.6376953125,-11.9189453125,-107.6904296875
7.6769485,69.4677734375,-12.3583984375,-110.8642578125
7.7148863,69.1748046875,-12.4560546875,-112.4755859375
7.7348786,68.3447265625,-13.8720703125,-115.6005859375
7.774131,68.7353515625,-14.1650390625,-118.5791015625
7.7934609,67.9541015625,-14.7509765625,-120.8740234375
7.8374179,66.4892578125,-15.9228515625,-122.9736328125
7.8564933,65.2197265625,-16.2158203125,-126.0986328125
7.893481,64.0966796875,-16.6064453125,-129.1748046875
7.9154442,62.4365234375,-17.4365234375,-131.1767578125
7.9565524,60.9228515625,-18.2666015625,-127.5634765625
7.9766084,59.6533203125,-17.8271484375,-119.5068359375
8.0137285,57.2119140625,-17.4853515625,-109.3994140625
8.0336828,55.8447265625,-15.9228515625,-100.3173828125
8.075849,54.6728515625,-14.7998046875,-92.6025390625
8.1009809,53.9404296875,-14.8486328125,-87.5244140625
8.13821,51.4990234375,-14.1650390625,-82.7392578125
8.1582213,49.9365234375,-13.5791015625,-81.3232421875
8.1982639,48.9111328125,-13.6279296875,-82.3486328125
8.2182358,48.1787109375,-13.8720703125,-83.9111328125
8.261385,47.0556640625,-13.5791015625,-85.7177734375
8.2803481,47.9345703125,-13.4814453125,-86.9873046875
8.3184017,53.7451171875,-13.6279296875,-88.4033203125
8.3401236,58.6767578125,-13.5791015625,-90.4541015625
8.3780134,61.8505859375,-14.6533203125,-92.5537109375
8.3979007,64.0966796875,-13.9697265625,-95.3369140625
8.4370938,66.2939453125,-14.8974609375,-97.9248046875
8.4569783,67.4658203125,-15.0439453125,-101.3427734375
8.4980911,68.5400390625,-15.7763671875,-104.2236328125
8.5180676,69.3212890625,-16.2646484375,-106.9580078125
8.5601625,68.6376953125,-16.8505859375,-110.1318359375
8.5790861,68.7841796875,-17.1435546875,-113.4033203125
8.6212835,68.3935546875,-17.2900390625,-115.7958984375
8.6428313,67.2705078125,-18.0224609375,-118.7255859375
8.6780478,66.0986328125,-18.1689453125,-121.5087890625
8.6989621,64.8291015625,-19.0966796875,-124.2431640625
8.7481242,63.1689453125,-18.4619140625,-126.9287109375
8.7690216,61.7041015625,-19.8291015625,-127.8076171875
8.7879584,59.4580078125,-19.2431640625,-121.2646484375
8.8321604,57.4072265625,-17.8759765625,-110.9619140625
8.8479442,55.6494140625,-17.0947265625,-100.1220703125
8.8920739,54.1357421875,-16.4599609375,-92.5048828125
8.9120789,52.2314453125,-16.0693359375,-86.1083984375
8.9492863,50.7666015625,-14.4091796875,-81.9091796875
8.9691557,49.2529296875,-14.0185546875,-79.5166015625
9.0132199,47.9345703125,-13.0419921875,-79.3701171875
9.0341201,46.2744140625,-12.9443359375,-82.0068359375
9.0700207,44.9560546875,-12.8955078125,-84.3505859375
9.0910376,44.4189453125,-12.4560546875,-86.3037109375
9.1331243,47.3486328125,-12.6513671875,-87.3779296875
9.1520795,53.5986328125,-11.9677734375,-89.0380859375
9.1782665,56.7724609375,-11.5771484375,-91.2841796875
9.2256722,60.0927734375,-12.0654296875,-93.9208984375
9.2391461,62.0458984375,-11.9189453125,-97.0947265625
9.2693879,63.9013671875,-11.5283203125,-99.5361328125
9.3154163,64.8779296875,-12.4560546875,-103.4423828125
9.3311072,65.7080078125,-12.3583984375,-106.2255859375
9.3592932,65.9521484375,-13.2861328125,-109.2041015625
9.3921531,65.2685546875,-13.6279296875,-112.4755859375
9.4342211,65.0732421875,-13.7744140625,-114.5263671875
9.4541928,64.0966796875,-13.5791015625,-117.1142578125
9.4942446,63.0712890625,-14.3115234375,-119.8486328125
9.5142371,61.8994140625,-15.2392578125,-123.5107421875
9.5543268,60.9716796875,-15.6787109375,-125.3173828125
9.5705644,58.8720703125,-15.5322265625,-124.6826171875
9.6143312,56.9677734375,-14.9462890625,-117.6025390625
9.6332685,55.9423828125,-13.8720703125,-106.2255859375
9.6613934,54.1845703125,-13.2373046875,-96.4111328125
9.6954684,52.8662109375,-13.2373046875,-88.9404296875
9.7222477,51.6455078125,-11.7236328125,-84.0576171875
9.7512972,50.5224609375,-10.8447265625,-80.3466796875
9.7857749,49.1064453125,-10.4541015625,-78.2958984375
9.8112846,48.1787109375,-9.4287109375,-79.7607421875
9.8423423,46.6162109375,-9.3310546875,-81.5673828125
9.8753621,45.2490234375,-8.4521484375,-83.8623046875
9.9033081,44.5654296875,-8.8916015625,-85.4248046875
9.9475178,48.2275390625,-8.9892578125,-86.4013671875
9.9663731,53.9404296875,-8.5986328125,-88.6962890625
9.9943769,57.8955078125,-8.0126953125,-90.6982421875
10.0233586,60.4345703125,-9.1845703125,-94.2626953125
10.0554698,62.5830078125,-9.5263671875,-96.7041015625
10.0833794,64.1943359375,-9.7705078125,-98.9990234375
10.1154496,66.0498046875,-10.3564453125,-102.6123046875
10.1456288,66.3916015625,-10.7958984375,-105.4931640625
10.1734489,65.6103515625,-10.4052734375,-108.5693359375
10.2066857,65.5126953125,-11.3330078125,-110.9130859375
10.2356395,65.4150390625,-11.9189453125,-113.4033203125
10.2644225,65.2197265625,-12.1142578125,-116.0400390625
10.2954641,64.7802734375,-12.8466796875,-118.9697265625
10.3245981,63.2177734375,-12.8955078125,-121.6064453125
10.3586057,61.9970703125,-13.9697265625,-121.6552734375
10.3936429,60.6298828125,-13.0908203125,-114.9658203125
10.4155163,58.7255859375,-11.7724609375,-103.4423828125
10.4476329,57.0166015625,-11.3818359375,-93.1884765625
10.474563,55.3564453125,-9.3310546875,-84.4482421875
10.5045431,53.9404296875,-8.6962890625,-78.3447265625
10.5396206,53.1103515625,-7.5244140625,-74.2919921875
10.5686899,51.4501953125,-6.7431640625,-71.2158203125
10.6007596,50.0341796875,-5.5224609375,-72.0458984375
10.6277766,48.6181640625,-5.7177734375,-74.1943359375
10.6578853,47.6904296875,-5.8642578125,-76.1962890625
10.68891,46.9091796875,-4.5458984375,-76.8798828125
10.718725,48.3740234375,-5.1318359375,-79.3212890625
10.7457365,54.5751953125,-4.9365234375,-80.8837890625
10.7799652,58.3349609375,-5.1318359375,-82.5927734375
10.8088344,60.9716796875,-4.2529296875,-85.3759765625
10.8407334,63.9013671875,-5.1318359375,-88.1591796875
10.8709087,65.3173828125,-4.8388671875,-91.2841796875
10.8987598,67.0751953125,-6.2060546875,-94.9462890625
10.9277123,68.1005859375,-6.4013671875,-97.6806640625
10.9598084,67.9052734375,-6.6455078125,-101.0986328125
10.9889947,67.0751953125,-7.5244140625,-104.0771484375
11.0371704,67.0263671875,-7.7685546875,-106.1767578125
11.0570178,66.9287109375,-7.6220703125,-108.7646484375
11.0791373,66.0009765625,-9.0380859375,-111.6943359375
11.1302486,65.1220703125,-9.1845703125,-114.5263671875
11.1492121,63.9501953125,-9.9658203125,-115.1123046875
11.1874093,62.9248046875,-9.2333984375,-108.7158203125
11.2064858,61.2646484375,-7.4267578125,-96.1669921875
11.2449869,59.7021484375,-6.8408203125,-84.2041015625
11.2648018,57.6025390625,-5.4736328125,-74.9755859375
11.3180145,56.5771484375,-4.6435546875,-68.9697265625
11.3388315,55.1123046875,-3.4716796875,-63.7939453125
11.3518439,53.9892578125,-1.5185546875,-60.3271484375
11.3989083,52.3779296875,-1.0302734375,-60.4248046875
11.4180153,50.9619140625,-0.2490234375,-62.7685546875
11.4590903,49.7900390625,0.4345703125,-65.3076171875
11.4707066,49.8388671875,0.4833984375,-67.0166015625
11.5181784,49.8876953125,1.0693359375,-68.9697265625
11.539443,55.6005859375,1.5087890625,-70.8251953125
11.576499,59.3603515625,1.6064453125,-73.5107421875
11.6017481,62.5341796875,0.8251953125,-76.4892578125
11.6225054,64.9755859375,1.0205078125,-80.4931640625
11.6535831,67.3681640625,0.6787109375,-83.4716796875
11.680692,68.3935546875,0.0927734375,-87.2314453125
11.7287488,69.9560546875,-0.0048828125,-90.7470703125
11.7498879,70.5419921875,-0.1513671875,-94.2626953125
11.7918729,69.8583984375,-1.1767578125,-96.9482421875
11.8128952,69.4189453125,-1.3232421875,-99.5849609375
11.849818,69.7607421875,-1.4208984375,-102.4658203125
11.8697575,68.5400390625,-1.2744140625,-106.4208984375
11.9108535,67.9052734375,-2.4951171875,-109.7412109375
11.9317504,66.6845703125,-3.2763671875,-110.9619140625
11.9678753,65.2197265625,-2.1533203125,-104.6630859375
11.9877805,63.5107421875,-0.8349609375,-92.2119140625
12.0300372,61.9482421875,0.8740234375,-80.2001953125
12.0502956,59.4580078125,2.2412109375,-70.8740234375
12.0863109,57.9443359375,3.4130859375,-63.7451171875
12.1051503,56.7724609375,4.4384765625,-59.2041015625
12.1503338,56.5283203125,6.1962890625,-56.0302734375
12.1713035,55.0146484375,6.9287109375,-57.1044921875
12.2102586,52.4267578125,7.5634765625,-59.3994140625
12.2294217,50.7666015625,8.1982421875,-63.0615234375
12.2742973,49.8876953125,8.4423828125,-64.1357421875
12.285898,49.4482421875,8.5888671875,-66.5771484375
12.3318713,53.9892578125,8.1494140625,-68.3837890625
12.3518297,59.9462890625,8.4423828125,-70.9716796875
12.3934566,62.9736328125,8.0029296875,-73.6572265625
12.4135766,64.8291015625,7.9052734375,-75.9033203125
12.4515964,67.1240234375,6.6845703125,-79.7119140625
12.471759,68.8330078125,6.4892578125,-83.1298828125
12.5097369,69.8095703125,6.4892578125,-85.9619140625
12.5307327,70.6396484375,6.5380859375,-88.5498046875
12.5698506,70.7373046875,5.6103515625,-91.9189453125
12.6034406,69.7607421875,5.4150390625,-94.2626953125
12.6178145,69.7119140625,4.5849609375,-97.6318359375
12.6629844,69.2236328125,4.2919921875,-100.5126953125
12.6848897,68.6865234375,3.8037109375,-103.5888671875
12.7228408,67.7587890625,2.8759765625,-104.4189453125
12.7482293,66.5380859375,3.9013671875,-97.7783203125
12.780952,65.4150390625,4.6826171875,-85.3759765625
12.8009179,63.5107421875,5.5126953125,-72.8271484375
12.8460334,62.3388671875,6.9775390625,-63.2080078125
12.866058,60.6787109375,7.4658203125,-56.7138671875
12.9040647,58.8232421875,9.2724609375,-52.7099609375
12.9252064,58.4814453125,9.5166015625,-49.9267578125
12.9633049,57.6513671875,10.6884765625,-51.0498046875
12.9831113,56.4306640625,10.7861328125,-53.9794921875
13.0231971,54.9169921875,11.0302734375,-57.2509765625
13.0431479,53.9892578125,10.8349609375,-59.0576171875
13.0666093,53.5986328125,10.9326171875,-60.9130859375
13.1183907,56.4794921875,10.9326171875,-63.2080078125
13.1393535,62.3876953125,10.2490234375,-65.7958984375
13.1775764,65.2685546875,10.9814453125,-69.1162109375
13.1923532,67.3681640625,9.4189453125,-72.8271484375
13.2374601,69.9072265625,8.6376953125,-76.3916015625
13.2582938,71.7626953125,8.2958984375,-79.2724609375
13.2953223,73.5693359375,8.4423828125,-83.1787109375
13.3151761,73.6669921875,7.1728515625,-86.5478515625
13.3574328,73.5693359375,6.0986328125,-90.1611328125
13.3772832,73.4716796875,5.4150390625,-93.4814453125
13.4305331,73.3740234375,4.9267578125,-96.0693359375
13.4624294,73.1298828125,3.9013671875,-98.9013671875
13.4659702,72.0556640625,3.3154296875,-102.6123046875
13.5094565,70.5908203125,2.3388671875,-102.9052734375
13.5210876,69.9072265625,2.6806640625,-94.8974609375
13.5737265,68.4912109375,4.2919921875,-81.7138671875
13.5928602,67.1728515625,5.0732421875,-68.9208984375
13.6310493,65.6591796875,6.8310546875,-58.9599609375
13.6501945,64.3408203125,8.1005859375,-51.6357421875
13.6852952,63.0224609375,9.1748046875,-46.6064453125
13.7064689,61.6552734375,10.2978515625,-42.5537109375
13.7324297,60.3369140625,12.0556640625,-42.8466796875
13.7836865,59.2626953125,11.4208984375,-45.7763671875
13.8038427,57.7978515625,11.6650390625,-49.5361328125
13.8419654,57.1142578125,11.1767578125,-51.7333984375
13.8544131,56.0888671875,11.4697265625,-53.7353515625
13.9010618,59.7021484375,11.5185546875,-56.6162109375
13.922123,64.4384765625,10.5908203125,-59.6435546875
13.9719453,67.5634765625,11.0302734375,-63.2568359375
13.9899614,69.3701171875,10.2978515625,-66.4794921875
14.0061568,72.2021484375,9.4677734375,-71.2646484375
14.053859,74.0576171875,8.6865234375,-74.9755859375
14.0727296,76.0595703125,8.2958984375,-78.2958984375
14.109866,76.4990234375,7.2216796875,-82.0556640625
14.1318062,76.8896484375,6.3916015625,-85.1318359375
14.1718868,76.8408203125,5.4638671875,-87.9638671875
14.1907936,76.4501953125,4.4384765625,-91.2353515625
14.2319978,76.4013671875,3.9501953125,-94.5068359375
14.2530481,75.3759765625,3.8037109375,-98.5595703125
14.2922938,74.4970703125,2.5341796875,-100.4150390625
14.3113364,73.2275390625,2.2900390625,-96.2158203125
14.3554679,72.2021484375,3.9013671875,-83.8134765625
14.3662771,70.2490234375,4.5361328125,-69.5556640625
14.3954464,68.9794921875,6.4892578125,-57.5927734375
14.4425476,66.9775390625,7.4169921875,-49.9267578125
14.4633516,65.4638671875,8.6865234375,-44.0185546875
14.4903356,63.9990234375,9.5166015625,-40.0146484375
14.5334919,63.3154296875,10.1513671875,-39.1845703125
14.5473312,61.2646484375,11.1279296875,-41.5771484375
14.5914298,59.0185546875,10.4931640625,-46.8994140625
14.6094018,57.7490234375,11.3232421875,-49.9755859375
14.6544823,57.2607421875,11.0302734375,-52.3193359375
14.6679398,58.0908203125,11.1279296875,-54.9560546875
14.7158516,62.8759765625,10.6884765625,-57.8857421875
14.7316226,66.8310546875,10.8837890625,-60.8642578125
14.7597403,68.9794921875,10.6396484375,-65.2099609375
14.805771,71.2744140625,10.8349609375,-68.2373046875
14.8206403,73.3740234375,10.0048828125,-72.1923828125
14.8527758,75.4736328125,9.1748046875,-76.4892578125
14.8796885,77.2802734375,7.8076171875,-79.8583984375
14.9117914,77.0849609375,7.9541015625,-83.4716796875
14.941746,76.8408203125,6.7333984375,-86.9384765625
14.9737571,76.5478515625,6.8798828125,-89.6240234375
15.0028529,77.0361328125,6.0009765625,-92.7001953125
15.0318179,75.8642578125,5.0732421875,-96.9970703125
15.0608373,74.7900390625,4.1455078125,-99.7314453125
15.0927929,73.7646484375,3.3642578125,-100.4638671875
15.1200013,72.2021484375,3.5107421875,-94.7021484375
15.1543298,70.4443359375,5.2685546875,-81.8603515625
15.1824281,69.0771484375,5.0732421875,-67.4560546875
15.2103421,66.5869140625,6.5869140625,-57.7880859375
15.2453496,65.6591796875,8.1982421875,-51.5869140625
15.2743832,63.8037109375,8.5888671875,-46.7041015625
15.3016941,62.4853515625,9.7607421875,-43.8720703125
15.3323621,61.0205078125,10.0537109375,-45.0439453125
15.362361,59.5556640625,9.8583984375,-48.6083984375
15.3963957,58.3837890625,10.2001953125,-52.1728515625
15.4234212,56.6259765625,10.3466796875,-55.0537109375
15.4523796,55.7470703125,10.7861328125,-56.6650390625
15.4843727,56.8701171875,9.2724609375,-59.0087890625
15.512374,62.7294921875,9.0283203125,-62.3291015625
15.5424154,66.2451171875,9.4189453125,-65.7470703125
15.5743768,68.6865234375,8.5888671875,-69.3603515625
15.6054164,71.2744140625,7.7587890625,-73.4619140625
15.6373847,72.3974609375,6.8310546875,-76.3427734375
15.6644275,74.8876953125,6.3427734375,-80.7373046875
15.6923849,75.3759765625,5.1708984375,-84.8388671875
15.7253702,75.8154296875,4.8779296875,-87.6220703125
15.7563761,75.6201171875,3.0712890625,-90.8935546875
15.7864044,75.9130859375,2.9248046875,-94.6533203125
15.8174366,75.6201171875,1.8017578125,-97.6806640625
15.8454727,74.5947265625,0.8251953125,-101.3427734375
15.8794503,73.4716796875,-0.1513671875,-104.2724609375
15.9073951,72.4951171875,-1.0791015625,-105.5419921875
15.9343888,71.6650390625,-0.6396484375,-99.7802734375
15.9704685,70.0537109375,0.0927734375,-85.5712890625
15.9984179,68.7841796875,0.4833984375,-73.6572265625
16.0244329,66.7822265625,0.6298828125,-63.2568359375
16.0593447,65.8056640625,2.0458984375,-56.7626953125
16.0880093,64.4384765625,2.4853515625,-51.9775390625
16.1258068,62.9248046875,3.5107421875,-48.9501953125
16.147354,61.9482421875,4.6826171875,-49.6826171875
16.1798832,60.3369140625,3.7060546875,-53.1982421875
16.2049294,58.7255859375,3.5595703125,-56.5185546875
16.239022,58.0419921875,4.0966796875,-59.1064453125
16.2679278,56.4794921875,3.2666015625,-61.2060546875
16.3009296,57.1630859375,2.9736328125,-64.0380859375
16.3291501,62.5830078125,2.6318359375,-66.8212890625
16.3581898,66.3427734375,2.4365234375,-70.1416015625
16.3911032,69.1748046875,1.4599609375,-74.0966796875
16.4371686,71.3232421875,1.5576171875,-77.8564453125
16.4560096,73.6181640625,-0.0048828125,-81.2255859375
16.4971377,74.9853515625,0.0439453125,-85.6201171875
16.5165232,75.9130859375,-0.8349609375,-89.7705078125
16.5555625,77.2802734375,-1.2744140625,-92.7490234375
16.5750865,77.1337890625,-2.3486328125,-95.8740234375
16.5974931,77.0849609375,-3.1298828125,-98.6083984375
16.6281874,77.0849609375,-3.7646484375,-101.7822265625
16.6783645,76.1572265625,-4.3017578125,-105.2001953125
16.6982448,74.8388671875,-5.9619140625,-108.2275390625
16.7211588,73.1787109375,-6.3525390625,-109.9853515625
16.7515681,72.6904296875,-6.3037109375,-104.9560546875
16.7784307,70.5908203125,-5.7177734375,-91.1376953125
16.8282906,69.3701171875,-5.0341796875,-77.8564453125
16.8501578,67.6611328125,-4.2529296875,-66.4306640625
16.8842368,65.4638671875,-3.1787109375,-58.1298828125
16.9052601,64.2431640625,-2.9345703125,-51.9775390625
16.946591,63.5107421875,-1.7138671875,-48.3154296875
16.9673065,61.4599609375,-1.3720703125,-46.9482421875
17.0075443,59.7021484375,-1.0791015625,-50.4638671875
17.0274239,58.2861328125,-0.8349609375,-53.8818359375
17.055446,57.6025390625,-0.5419921875,-57.4951171875
17.0996874,56.4794921875,-0.7861328125,-59.7412109375
17.119357,55.9912109375,-0.9326171875,-62.0849609375
17.1615027,59.7021484375,-0.7373046875,-64.9169921875
17.1817635,64.8291015625,-1.1279296875,-68.5302734375
17.2186581,68.3447265625,-1.3720703125,-71.7041015625
17.2386006,70.9326171875,-1.7626953125,-76.1474609375
17.2616625,72.7392578125,-2.2021484375,-80.1025390625
17.313859,74.5458984375,-2.9345703125,-84.3017578125
17.3238384,76.1572265625,-3.8623046875,-87.5732421875
17.3539536,77.1826171875,-3.1298828125,-91.0888671875
17.3857982,77.1337890625,-4.3017578125,-95.1416015625
17.432756,76.8896484375,-5.0830078125,-97.5830078125
17.4519862,77.2314453125,-5.7177734375,-100.7080078125
17.4909265,76.4501953125,-6.0107421875,-104.6142578125
17.5116653,74.7412109375,-6.3525390625,-107.7392578125
17.5506723,73.8623046875,-7.6708984375,-111.2060546875
17.5695831,73.0810546875,-7.6708984375,-110.0341796875
17.5936215,71.6162109375,-7.6220703125,-100.2197265625
17.6236259,69.6142578125,-6.6943359375,-85.9130859375
17.6717348,67.4169921875,-5.7666015625,-73.3154296875
17.6917867,65.1220703125,-5.2294921875,-64.6728515625
17.728992,63.9990234375,-3.8134765625,-58.0810546875
17.7498862,62.4853515625,-3.1298828125,-53.6376953125
17.7748394,61.3623046875,-1.7138671875,-51.4404296875
17.8062298,59.5068359375,-1.3720703125,-52.7587890625
17.8350659,57.9443359375,-1.5673828125,-56.3232421875
17.865116,56.1865234375,-1.0302734375,-59.3017578125
17.9151415,55.2099609375,-1.6162109375,-61.5478515625
17.935262,54.3310546875,-1.6162109375,-63.7451171875
17.9724629,55.0146484375,-1.9580078125,-66.6259765625
17.9924941,59.6533203125,-1.7138671875,-69.0673828125
18.016615,64.2431640625,-2.3974609375,-72.6806640625
18.047781,67.4658203125,-2.3486328125,-75.8056640625
18.0947119,70.2978515625,-2.9345703125,-80.0048828125
18.1248332,72.1533203125,-3.4716796875,-83.5205078125
18.1397213,73.9599609375,-4.2529296875,-87.2802734375
18.1837141,74.7412109375,-4.4970703125,-90.4052734375
18.2039204,74.8876953125,-4.4970703125,-93.8232421875
18.2280996,74.5947265625,-5.5224609375,-97.1923828125
18.2570667,74.9365234375,-6.1572265625,-100.0732421875
18.2870405,74.6923828125,-6.6455078125,-103.0029296875
18.3380195,73.1298828125,-7.1337890625,-106.1279296875
18.3591696,72.4462890625,-7.2314453125,-109.0576171875
18.3972129,71.2255859375,-8.8427734375,-110.9619140625
18.4182308,70.6396484375,-8.1591796875,-103.7841796875
18.4581019,69.0771484375,-7.9150390625,-90.3564453125
18.4760643,66.9287109375,-7.2802734375,-78.1005859375
18.4979835,65.4150390625,-7.2314453125,-68.6279296875
18.5282068,63.4130859375,-5.5712890625,-62.2314453125
18.5626312,62.7294921875,-5.3271484375,-57.7392578125
18.6121178,60.8251953125,-4.4970703125,-55.9326171875
18.631941,60.2392578125,-4.2529296875,-56.0791015625
18.6671322,58.2861328125,-4.1064453125,-59.6435546875
18.6880408,57.1630859375,-3.6669921875,-63.2568359375
18.7265003,55.8447265625,-3.7158203125,-65.3076171875
18.7402299,54.8681640625,-4.0087890625,-67.7001953125
18.7695433,54.0380859375,-4.3505859375,-69.3603515625
18.802371,56.7724609375,-3.9599609375,-73.2177734375
18.8504231,63.0224609375,-4.9365234375,-76.1474609375
18.868351,66.7333984375,-5.2783203125,-79.7607421875
18.8905196,69.8095703125,-5.5712890625,-83.3740234375
18.9223624,71.0791015625,-6.6943359375,-87.3779296875
18.9695016,73.1298828125,-8.0615234375,-90.6982421875
18.9824644,74.8876953125,-7.5244140625,-94.1162109375
19.0104868,75.2783203125,-8.4521484375,-97.0947265625
19.0594981,75.5712890625,-9.0869140625,-100.7568359375
19.078366,74.9853515625,-9.7216796875,-103.1982421875
19.1204413,74.1552734375,-10.1611328125,-106.9091796875
19.1353131,74.4482421875,-10.7958984375,-109.2529296875
19.1797695,73.1787109375,-11.7236328125,-112.9638671875
19.1996737,72.1533203125,-12.8955078125,-115.3076171875
19.2408109,70.7861328125,-12.7978515625,-110.2783203125
19.2536364,69.2236328125,-10.8935546875,-97.9248046875
19.2998578,67.9052734375,-10.8935546875,-83.7158203125
19.3197264,66.1962890625,-9.7216796875,-72.4853515625
19.3412842,64.7314453125,-9.0380859375,-63.8427734375
19.3743534,62.8759765625,-7.6220703125,-57.8369140625
19.4260797,62.0458984375,-6.6455078125,-53.8330078125
19.4317568,60.3857421875,-5.7666015625,-52.5146484375
19.4709475,58.8232421875,-4.8876953125,-54.8583984375
19.4949449,57.2119140625,-5.1318359375,-58.1298828125
19.5522561,55.8935546875,-4.1064453125,-60.6201171875
19.5559862,55.1123046875,-4.5458984375,-62.1826171875
19.5849399,54.2822265625,-4.0087890625,-64.3798828125
19.6169644,54.9169921875,-4.3505859375,-66.2353515625
19.6630083,61.2646484375,-4.5458984375,-69.2138671875
19.6757974,65.2685546875,-4.5458984375,-71.9970703125
19.7074517,68.0029296875,-4.9853515625,-74.8291015625
19.7369663,70.5908203125,-5.6689453125,-78.1494140625
19.769105,72.9833984375,-6.0107421875,-80.6396484375
19.8141358,74.7900390625,-6.4501953125,-85.2294921875
19.8328031,75.4248046875,-7.8662109375,-88.6474609375
19.8551198,76.1572265625,-7.9638671875,-90.9912109375
19.8947315,75.7666015625,-8.5986328125,-94.7509765625
19.9166909,75.6689453125,-8.7451171875,-97.3876953125
19.9497418,75.8154296875,-9.3798828125,-100.6591796875
19.9767863,74.5458984375,-10.6005859375,-103.7353515625
20.0068598,73.2763671875,-10.9423828125,-107.2509765625
20.0389032,72.3974609375,-11.6259765625,-105.6884765625
20.0689381,70.8837890625,-9.7216796875,-94.8974609375
20.0967438,69.4677734375,-9.0380859375,-80.6884765625
20.132873,67.7587890625,-7.8173828125,-69.2138671875
20.1587939,65.9033203125,-6.6943359375,-60.3759765625
20.1898458,64.4384765625,-5.6201171875,-53.3935546875
20.2197605,62.7783203125,-4.5458984375,-48.6083984375
20.248855,61.6552734375,-3.1298828125,-46.1669921875
20.2809379,60.3857421875,-2.3486328125,-47.1435546875
20.3098847,58.7255859375,-1.6650390625,-50.5126953125
20.3389149,56.9189453125,-0.7861328125,-53.0029296875
20.3708942,55.3076171875,-0.8349609375,-55.6884765625
20.4003025,54.7705078125,-0.6396484375,-57.8369140625
20.434037,54.2822265625,0.0927734375,-60.4248046875
20.4599576,58.3837890625,-0.3466796875,-63.1103515625
20.4899915,64.2919921875,-0.4931640625,-66.3818359375
20.526131,67.5634765625,-0.0048828125,-70.4833984375
20.550048,69.8583984375,-0.7861328125,-73.9990234375
20.5799884,71.9580078125,-1.0791015625,-77.5146484375
20.61299,74.6923828125,-1.1767578125,-82.0068359375
20.6420271,76.2060546875,-2.0556640625,-84.5947265625
20.6749859,76.6455078125,-2.5439453125,-88.9892578125
20.7029961,76.7919921875,-2.6416015625,-92.0654296875
20.7309477,76.3525390625,-3.8134765625,-95.3369140625
20.7611936,75.7666015625,-3.6181640625,-98.6083984375
20.7931957,75.9619140625,-4.3505859375,-102.6123046875
20.8222055,74.4970703125,-4.7900390625,-105.7861328125
20.8550606,73.6181640625,-6.0107421875,-108.4228515625
20.884098,72.3486328125,-5.5224609375,-104.4189453125
20.9119902,70.9326171875,-3.5205078125,-94.2138671875
20.9440769,69.3212890625,-2.7392578125,-83.7158203125
20.9730741,67.4169921875,-1.4697265625,-75.3173828125
21.0010528,65.7568359375,-0.3955078125,-68.9697265625
21.037286,64.5361328125,1.5576171875,-64.1357421875
21.0631962,63.9990234375,2.6318359375,-60.5224609375
21.0950007,61.7041015625,4.1455078125,-60.8154296875
21.1250614,60.0439453125,3.9013671875,-62.9638671875
21.1540085,58.1884765625,4.5361328125,-66.5283203125
21.1862552,57.4072265625,5.7568359375,-69.0185546875
21.2142834,56.4306640625,5.4638671875,-71.2158203125
21.2441577,55.3076171875,5.2685546875,-74.2431640625
21.2771132,55.4541015625,4.9267578125,-77.0263671875
21.3062218,60.6298828125,5.0732421875,-80.4931640625
21.3381326,65.4150390625,4.5361328125,-83.4716796875
21.3831241,68.4423828125,3.4130859375,-87.0849609375
21.4053145,71.3232421875,3.5595703125,-91.1865234375
21.423317,73.5693359375,3.2666015625,-94.8974609375
21.4613207,75.3271484375,2.7783203125,-99.3896484375
21.4851539,76.1572265625,2.0947265625,-102.7099609375
21.5211729,77.0849609375,1.3134765625,-106.6650390625
21.5470494,76.4990234375,1.0693359375,-110.8642578125
21.5750413,76.7431640625,0.4833984375,-113.9892578125
21.6120633,76.7431640625,-0.4931640625,-117.7978515625
21.6369769,76.2060546875,-1.1279296875,-121.4111328125
21.66407,75.3759765625,-1.9091796875,-124.4873046875
21.7031173,73.8134765625,-2.5439453125,-126.0986328125
21.72444,73.3251953125,-1.2744140625,-121.5087890625
21.764573,72.4462890625,-0.3955078125,-116.3818359375
21.7856981,70.7861328125,0.2392578125,-110.7177734375
21.8173266,69.1259765625,1.3623046875,-106.9580078125
21.8503734,67.2705078125,2.3388671875,-103.3447265625
21.8953765,66.0498046875,3.4619140625,-101.7822265625
21.9161733,65.4638671875,4.3896484375,-99.7802734375
21.9564133,64.6337890625,5.0732421875,-100.5615234375
21.976218,62.9736328125,4.9755859375,-102.1240234375
22.0023718,61.0205078125,5.3662109375,-104.9072265625
22.0464392,59.9951171875,5.7080078125,-105.7861328125
22.0672188,59.0673828125,4.2919921875,-107.2509765625
22.0900326,58.1396484375,4.3408203125,-109.0576171875
22.1191155,58.7744140625,4.0966796875,-111.4013671875
22.1481717,64.8779296875,4.4873046875,-113.7939453125
22.1961875,68.7841796875,3.7060546875,-116.4794921875
22.2162062,71.3720703125,3.1689453125,-118.6767578125
22.2562819,74.0576171875,3.3154296875,-122.5341796875
22.2763605,75.9619140625,1.8505859375,-124.4384765625
22.3183773,77.5732421875,1.0693359375,-127.2705078125
22.339752,78.9404296875,0.3369140625,-130.1513671875
22.3757975,79.4775390625,-0.6396484375,-133.1787109375
22.3973923,78.7939453125,-0.4443359375,-135.3759765625
22.4404568,78.6962890625,-1.1279296875,-138.3056640625
22.4602618,78.4521484375,-2.0556640625,-141.2841796875
22.4792332,77.8173828125,-2.8369140625,-144.7021484375
22.5112884,77.0361328125,-3.7646484375,-146.9970703125
22.5432963,75.7177734375,-3.6669921875,-145.1904296875
22.5712351,74.4970703125,-2.9345703125,-140.5517578125
22.6032176,73.0322265625,-1.1767578125,-135.2294921875
22.6311739,71.1767578125,-0.5419921875,-130.5419921875
22.6634605,69.6142578125,0.8740234375,-127.3193359375
22.7083719,68.2470703125,1.6552734375,-124.6826171875
22.7283011,66.2939453125,2.9248046875,-122.5830078125
22.7527948,65.0732421875,4.2919921875,-121.2646484375
22.8014659,63.3154296875,3.9990234375,-121.9482421875
22.8215925,62.1923828125,4.4384765625,-123.5107421875
22.8595493,60.8251953125,4.6826171875,-124.6337890625
22.8804697,59.7021484375,4.8291015625,-125.0244140625
22.9072621,58.5302734375,4.9755859375,-126.5380859375
22.9343079,57.5048828125,4.6826171875,-127.8564453125
22.9633301,60.2880859375,4.9267578125,-129.3701171875
23.013405,66.1474609375,4.3408203125,-131.7138671875
23.0242522,70.1025390625,3.6572265625,-133.2763671875
23.051238,72.2998046875,3.3154296875,-135.6201171875
23.086497,74.6923828125,2.6318359375,-137.5732421875
23.1153591,76.5966796875,2.6318359375,-141.0400390625
23.1474503,78.4033203125,1.5087890625,-142.9931640625
23.1753583,78.6474609375,1.8017578125,-145.2880859375
23.2035423,80.0146484375,0.7763671875,-147.2412109375
23.2344557,79.3798828125,-0.6884765625,-149.5849609375
23.2664543,78.1591796875,-0.7373046875,-151.9287109375
23.2943996,78.7939453125,-1.2255859375,-154.4189453125
23.3455978,77.2802734375,-2.5439453125,-156.3720703125
23.3653675,76.1083984375,-2.6904296875,-157.3974609375
23.402679,74.6435546875,-2.2509765625,-153.2470703125
23.4229014,73.9111328125,-0.5908203125,-147.7294921875
23.4459105,71.4208984375,0.3369140625,-142.1630859375
23.4746141,69.7607421875,1.1181640625,-138.3544921875
23.5256361,68.6376953125,2.3876953125,-135.0341796875
23.5465469,66.9287109375,3.5595703125,-131.8603515625
23.5857061,66.0986328125,4.1943359375,-129.6142578125
23.5986089,63.4619140625,5.7080078125,-128.7841796875
23.6276458,62.2412109375,5.5615234375,-129.0283203125
23.6596453,60.9228515625,5.1220703125,-129.8583984375
23.6886718,59.9951171875,5.5615234375,-129.0771484375
23.7166608,58.2373046875,5.7568359375,-129.5166015625
23.7489747,57.4072265625,5.6103515625,-130.2001953125
23.7785355,56.5283203125,5.1708984375,-130.6884765625
23.8135887,60.5322265625,4.8291015625,-132.6416015625
23.8647834,66.0986328125,5.0244140625,-132.9833984375
23.8942058,68.9794921875,3.9013671875,-134.4970703125
23.898123,72.1533203125,3.3154296875,-136.5966796875
23.9350863,74.0576171875,2.8271484375,-138.5986328125
23.9573121,75.8154296875,2.5341796875,-140.1611328125
23.9879989,77.1337890625,1.7529296875,-141.6748046875
24.0251133,77.7685546875,0.6787109375,-143.2373046875
24.0490044,78.1103515625,-0.7861328125,-144.9462890625
24.0871141,77.4267578125,-0.8837890625,-147.3876953125
24.1280963,77.7685546875,-1.3720703125,-148.7548828125
24.1460057,77.3291015625,-2.7880859375,-150.8056640625
24.172077,76.3525390625,-3.4716796875,-150.9033203125
24.1992561,74.9853515625,-2.8369140625,-145.9716796875
24.2352052,74.3505859375,-1.7626953125,-139.4287109375
24.2625415,72.8857421875,-1.6162109375,-133.5205078125
24.2895055,71.2255859375,-0.4443359375,-128.1005859375
24.3242684,69.7119140625,0.6787109375,-123.6572265625
24.3523073,67.7587890625,0.4345703125,-120.4345703125
24.3782989,66.5380859375,1.4111328125,-117.1630859375
24.415379,65.7568359375,1.9482421875,-116.3330078125
24.4404836,64.0966796875,1.3623046875,-117.1630859375
24.4785051,62.5830078125,1.8017578125,-117.5537109375
24.5044048,60.7275390625,1.7529296875,-117.6025390625
24.5314364,59.2138671875,1.2646484375,-117.3095703125
24.5634056,58.6279296875,0.9716796875,-118.1884765625
24.600493,57.5048828125,0.5322265625,-119.3603515625
24.6224314,61.8505859375,-0.2978515625,-120.6787109375
24.6604558,66.8310546875,0.2880859375,-122.0458984375
24.6835049,69.7607421875,-0.2978515625,-124.1455078125
24.7136102,72.8857421875,-1.4208984375,-125.6591796875
24.7516116,74.4970703125,-1.7138671875,-127.8564453125
24.7745568,76.1083984375,-2.9833984375,-130.3955078125
24.802591,77.7685546875,-3.2763671875,-132.0556640625
24.8355538,78.1591796875,-3.4716796875,-134.3994140625
24.8637985,78.1591796875,-5.2783203125,-136.4013671875
24.892727,77.6708984375,-5.4248046875,-138.3544921875
24.9316398,77.4267578125,-6.0595703125,-140.3564453125
24.9538566,77.0849609375,-7.1337890625,-142.5048828125
24.9918444,75.6689453125,-7.1826171875,-140.4052734375
25.0138186,75.4248046875,-5.1806640625,-134.5458984375
25.0499219,74.0576171875,-5.2783203125,-125.0732421875
25.0759328,72.0556640625,-4.2041015625,-116.8701171875
25.1038174,70.6884765625,-2.8857421875,-109.3994140625
25.135095,68.8330078125,-2.2998046875,-103.5888671875
25.1669295,66.8798828125,-0.9326171875,-97.9248046875
25.1950935,66.0498046875,-0.2490234375,-95.0927734375
25.2320018,64.5361328125,0.8251953125,-94.3603515625
25.2580132,63.0224609375,0.2880859375,-94.9462890625
25.2939691,61.7041015625,0.4345703125,-95.5322265625
25.3149269,59.7509765625,0.4345703125,-96.1181640625
25.3526823,59.7021484375,0.4345703125,-97.1435546875
25.3757736,58.5302734375,0.0927734375,-98.3154296875
25.4079787,58.6767578125,-0.0048828125,-99.2431640625
25.4369658,63.8525390625,-0.5419921875,-101.5869140625
25.4659358,68.1005859375,-0.5419921875,-104.0771484375
25.4988388,70.8349609375,-1.7138671875,-105.5908203125
25.534893,73.7646484375,-2.0556640625,-108.4228515625
25.556732,75.8154296875,-2.2021484375,-111.0107421875
25.5957056,78.1103515625,-2.4462890625,-113.8916015625
25.6167593,79.1845703125,-3.1298828125,-116.6748046875
25.6539531,80.6005859375,-3.5693359375,-119.2138671875
25.6786903,80.4541015625,-4.2041015625,-121.2158203125
25.7077904,80.7470703125,-4.5458984375,-124.0966796875
25.7448216,80.2099609375,-5.3759765625,-127.3681640625
25.7687124,79.4775390625,-6.6455078125,-129.1259765625
25.8068171,78.6474609375,-5.7666015625,-125.8056640625
25.8300355,77.0361328125,-3.9111328125,-118.2373046875
25.8588465,76.1572265625,-3.1787109375,-108.7158203125
25.8959992,74.3505859375,-1.5673828125,-101.0498046875
25.9198941,72.4462890625,-0.8349609375,-94.5068359375
25.9559279,70.7861328125,0.2392578125,-88.8427734375
25.9828869,68.1982421875,1.5087890625,-84.7412109375
26.0100111,67.0263671875,2.1923828125,-82.4951171875
26.0398678,66.0498046875,3.1201171875,-83.1298828125
26.07678,64.8291015625,3.0224609375,-85.3271484375
26.1007771,63.4130859375,3.9013671875,-87.2314453125
26.1379278,61.3134765625,4.1455078125,-88.6962890625
26.1608271,60.2392578125,3.9990234375,-89.7216796875
26.1997616,58.6279296875,3.7060546875,-92.3583984375
26.2187321,59.0185546875,3.7548828125,-95.0439453125
26.2569647,65.0732421875,3.5107421875,-98.0712890625
26.2787768,68.8330078125,2.9736328125,-100.1220703125
26.3177393,71.3232421875,2.5341796875,-104.3212890625
26.3409003,74.1552734375,1.7529296875,-106.6162109375
26.3778765,76.3037109375,1.9482421875,-110.2783203125
26.4031539,78.5986328125,1.3134765625,-113.0126953125
26.4390323,79.7705078125,1.1181640625,-115.7958984375
26.4622458,80.9423828125,-0.1025390625,-119.1162109375
26.4990826,80.3564453125,-0.1513671875,-121.7041015625
26.5223253,79.8193359375,-0.7373046875,-125.1220703125
26.5604473,80.4541015625,-1.8115234375,-127.3681640625
26.5822779,79.5263671875,-1.8603515625,-128.3447265625
26.6193393,78.2080078125,-0.5419921875,-122.8271484375
26.6454553,76.6943359375,0.1416015625,-114.6728515625
26.6744691,76.0595703125,0.5322265625,-106.5185546875
26.7023829,74.9853515625,1.8017578125,-100.0244140625
26.7402112,73.2275390625,3.2177734375,-95.8740234375
26.7631437,71.2255859375,4.1455078125,-92.0654296875
26.8013911,70.3466796875,4.9267578125,-90.4541015625
26.8235675,68.1982421875,4.6826171875,-91.7236328125
26.8542891,67.9541015625,5.1708984375,-93.8720703125
26.8936134,66.5380859375,4.9755859375,-96.2646484375
26.9142333,65.0732421875,5.2197265625,-97.6806640625
26.9512811,63.1689453125,4.9267578125,-100.5126953125
26.9772861,61.8994140625,4.8291015625,-102.5146484375
27.0043022,61.3623046875,4.4384765625,-106.1279296875
27.0410951,63.1201171875,3.9013671875,-108.0810546875
27.0690035,68.5400390625,3.3154296875,-111.1083984375
27.0961273,72.0068359375,3.3154296875,-114.2333984375
27.1230748,73.5693359375,1.7529296875,-118.2861328125
27.160113,76.3525390625,1.8017578125,-120.8251953125
27.1871498,78.7939453125,1.0693359375,-124.5361328125
27.2189484,80.6005859375,0.7275390625,-127.3193359375
27.2460836,81.6259765625,-0.9326171875,-130.0537109375
27.2821165,81.6259765625,-0.7861328125,-132.5439453125
27.3089777,81.1865234375,-1.5673828125,-136.4013671875
27.3360146,81.0400390625,-2.4951171875,-138.9404296875
27.3640003,80.9423828125,-3.3251953125,-140.9423828125
27.4020352,79.7216796875,-2.7880859375,-137.7197265625
27.4249129,79.0380859375,-1.3232421875,-130.6884765625
27.4605461,77.6708984375,-0.2490234375,-122.7294921875
27.4882104,76.2548828125,-0.1513671875,-116.4306640625
27.5238321,75.0341796875,1.1669921875,-111.3525390625
27.5506703,72.9833984375,2.6806640625,-108.0322265625
27.5796142,71.4697265625,3.6572265625,-105.5419921875
27.6060784,69.4677734375,3.9501953125,-104.9072265625
27.6443087,68.1982421875,4.8779296875,-107.2021484375
27.6695117,66.7333984375,4.1943359375,-109.1552734375
27.7022427,65.5615234375,5.1708984375,-111.2060546875
27.7311321,63.8525390625,4.6826171875,-113.4033203125
27.7571928,62.4853515625,4.2919921875,-115.0146484375
27.7871701,62.2412109375,4.3896484375,-117.4072265625
27.8195217,61.4599609375,4.1943359375,-119.8974609375
27.8496476,66.1474609375,4.0478515625,-122.4853515625
27.8814556,71.0302734375,3.0224609375,-125.7080078125
27.9112172,73.1298828125,1.9482421875,-127.8076171875
27.9392919,75.9130859375,1.9970703125,-131.4208984375
27.9712539,78.0615234375,1.8505859375,-134.0576171875
28.0012609,80.2587890625,0.7763671875,-137.6220703125
28.0302838,81.9189453125,-0.2978515625,-139.8193359375
28.0623174,81.9189453125,-0.4931640625,-142.7978515625
28.0923059,81.8212890625,-1.1279296875,-145.0439453125
28.1243107,81.2841796875,-2.4462890625,-148.7548828125
28.1533203,81.3330078125,-2.7392578125,-150.8544921875
28.1803712,80.8447265625,-2.7880859375,-151.3916015625
28.2123181,78.8427734375,-1.8603515625,-145.6298828125
28.2403837,78.5009765625,-1.2744140625,-137.7197265625
28.2714369,76.4013671875,-0.0537109375,-130.4931640625
28.3043505,74.8876953125,1.0205078125,-125.0244140625
28.3303472,73.3251953125,2.4365234375,-119.8486328125
28.3663611,71.3232421875,3.1201171875,-117.2119140625
28.3945876,69.5654296875,4.0478515625,-114.5263671875
28.4214715,67.9541015625,4.9267578125,-114.4775390625
28.451388,66.4892578125,5.0244140625,-116.2353515625
28.4843557,65.8544921875,5.6591796875,-118.3349609375
28.5116473,63.8525390625,6.5380859375,-119.6533203125
28.5466217,62.1435546875,6.0986328125,-121.4599609375
28.5754747,60.5322265625,6.0986328125,-124.4873046875
28.6004439,59.8974609375,5.9033203125,-126.2939453125
28.6364889,60.6787109375,6.0986328125,-129.2236328125
28.6656266,65.9521484375,5.9033203125,-130.9326171875
28.7000164,71.2744140625,5.6591796875,-133.3251953125
28.725628,73.4228515625,5.2197265625,-136.4990234375
28.7547384,75.7666015625,4.4384765625,-139.3310546875
28.7926673,78.1103515625,4.0966796875,-142.4072265625
28.8164441,80.0146484375,3.2177734375,-144.4091796875
28.8444688,81.1865234375,2.9248046875,-146.7529296875
28.8816443,81.7724609375,2.8759765625,-149.2919921875
28.9046423,81.4794921875,1.8017578125,-152.6611328125
28.9357566,80.9912109375,1.3623046875,-154.5166015625
28.9679311,80.8935546875,0.2880859375,-156.9580078125
28.9937394,79.5263671875,0.1904296875,-155.6884765625
29.0277106,78.4521484375,1.4111328125,-149.3896484375
29.0579865,77.5244140625,2.4853515625,-141.3330078125
29.084741,75.9619140625,3.6083984375,-133.7646484375
29.1190685,74.1552734375,4.8291015625,-127.2216796875
29.1464124,72.6416015625,6.0986328125,-122.6806640625
29.1813648,70.5908203125,6.9775390625,-119.5068359375
29.2100766,68.7353515625,7.6611328125,-117.3095703125
29.2447509,67.3193359375,8.1982421875,-117.6513671875
29.2694792,66.0498046875,8.1982421875,-119.1162109375
29.3050381,64.5361328125,8.8330078125,-119.7021484375
29.3271464,63.0224609375,9.5166015625,-121.3623046875
29.3650908,61.2158203125,8.6865234375,-121.9970703125
29.3880016,60.5810546875,8.0517578125,-123.9501953125
29.4259865,59.2626953125,7.5146484375,-125.3173828125
29.4501479,59.9462890625,7.4658203125,-127.3193359375
29.4871778,65.5615234375,6.6845703125,-128.6376953125
29.5085309,69.7119140625,6.1474609375,-131.4208984375
29.5415095,72.5439453125,5.3662109375,-133.6669921875
29.5762129,74.7900390625,5.1708984375,-136.5478515625
29.5982401,77.1826171875,3.9990234375,-138.5498046875
29.6371904,79.2333984375,3.1201171875,-140.9423828125
29.6583973,79.9169921875,2.3388671875,-142.7490234375
29.697405,80.8447265625,2.3876953125,-145.2392578125
29.723957,79.7216796875,1.2646484375,-147.8759765625
29.7520354,79.6240234375,-0.2490234375,-149.8779296875
29.7830014,78.9404296875,-1.6650390625,-151.4892578125
29.8179706,79.1845703125,-0.5908203125,-148.3154296875
29.8400001,77.7685546875,0.8740234375,-139.6240234375
29.8770799,76.4501953125,1.8017578125,-129.9560546875
29.9031381,74.8388671875,1.3623046875,-123.2666015625
29.9340988,73.5693359375,3.0224609375,-116.7236328125
29.963068,71.2255859375,4.2431640625,-111.9384765625
29.992937,69.5166015625,5.1220703125,-108.1298828125
30.0310948,68.1494140625,5.2197265625,-106.9580078125
30.0510462,66.8798828125,5.2197265625,-107.7880859375
30.0910822,66.0498046875,5.7080078125,-109.5458984375
30.1150413,64.5361328125,5.1708984375,-110.5224609375
30.1420911,62.7294921875,5.2685546875,-111.6455078125
30.1790108,61.4111328125,4.5849609375,-113.1591796875
30.2041536,60.8251953125,5.1220703125,-114.6728515625
30.2391698,58.9208984375,4.9755859375,-116.2353515625
30.2600837,60.9228515625,4.0966796875,-118.4814453125
30.2971606,66.7822265625,3.4130859375,-121.4599609375
30.323158,70.2490234375,2.4365234375,-123.8525390625
30.3602286,73.9111328125,2.2900390625,-125.6591796875
30.3831717,75.6201171875,1.2158203125,-128.5400390625
30.4212282,77.2314453125,0.5810546875,-130.5908203125
30.4564029,78.8427734375,-0.3955078125,-133.6181640625
30.4744967,80.3076171875,-1.5185546875,-135.8154296875
30.5123687,79.9658203125,-1.9091796875,-138.7939453125
30.5536814,79.2333984375,-2.3486328125,-141.6748046875
30.5623367,79.5263671875,-3.6669921875,-143.9697265625
30.6005847,78.5498046875,-4.3994140625,-143.4326171875
30.6254846,77.9638671875,-2.8857421875,-135.9130859375
30.6646038,76.7919921875,-1.8115234375,-125.6103515625
30.687497,75.0341796875,-0.7861328125,-115.5029296875
30.7256765,74.2041015625,0.3369140625,-107.4462890625
30.7434667,72.7392578125,1.5576171875,-99.9755859375
30.7795718,70.6884765625,2.8271484375,-95.1904296875
30.8057431,68.5888671875,3.7060546875,-91.8701171875
30.8407804,67.5146484375,4.1455078125,-91.4306640625
30.8666326,65.8544921875,3.9990234375,-92.8955078125
30.9017645,63.9501953125,3.9013671875,-95.1904296875
30.9246466,63.5595703125,4.3408203125,-96.9970703125
30.9607681,61.8017578125,3.8037109375,-98.4130859375
30.986133,59.8486328125,3.6572265625,-100.0244140625
31.0211601,59.2626953125,3.8525390625,-102.8564453125
31.0481539,59.4580078125,3.6083984375,-106.5185546875
31.085055,63.1689453125,3.5595703125,-109.1552734375
31.1080286,68.3447265625,2.4853515625,-112.2314453125
31.1488431,71.7626953125,2.6318359375,-115.0634765625
31.1657686,74.3017578125,1.2646484375,-117.8955078125
31.2040501,76.6943359375,0.3857421875,-121.5576171875
31.227036,78.8916015625,-0.3466796875,-124.2919921875
31.2648336,80.7470703125,-0.8837890625,-126.8310546875
31.2880315,81.8212890625,-1.3232421875,-130.2001953125
31.3230978,81.3818359375,-2.0068359375,-134.1552734375
31.3505589,81.7236328125,-1.8603515625,-136.4501953125
31.3865667,80.7958984375,-3.5205078125,-138.3544921875
31.4095926,80.3076171875,-3.2275390625,-135.0341796875
31.4466054,79.2333984375,-1.5185546875,-125.0244140625
31.4697011,77.4267578125,-0.1513671875,-114.9658203125
31.5059677,76.2548828125,0.5810546875,-105.9814453125
31.5308524,75.0341796875,2.2412109375,-99.2431640625
31.5585728,73.1787109375,3.5595703125,-94.0673828125
31.5985709,70.7861328125,4.1943359375,-90.6982421875
31.6204548,69.5166015625,4.8779296875,-89.7705078125
31.658569,68.3935546875,5.3173828125,-91.4794921875
31.6825849,66.6845703125,5.3173828125,-95.1416015625
31.7104668,64.7314453125,5.8544921875,-96.4599609375
31.7615004,62.3876953125,5.6591796875,-98.5595703125
31.771212,61.0205078125,5.8056640625,-100.1708984375
31.8095468,60.5810546875,5.9521484375,-102.5146484375
31.8313407,59.0673828125,5.3173828125,-105.1513671875
31.8695853,59.7509765625,4.6337890625,-108.8623046875
31.890531,65.4150390625,4.2431640625,-111.3037109375
31.9274235,69.9072265625,3.9990234375,-114.9658203125
31.9534161,72.6416015625,2.7783203125,-117.7978515625
31.9914948,75.4248046875,3.0224609375,-120.8740234375
32.0139532,77.4267578125,1.9482421875,-124.3408203125
32.0438978,79.3310546875,0.5322265625,-127.0751953125
32.0718989,80.1611328125,0.3369140625,-130.0537109375
32.1109001,80.7958984375,-0.3466796875,-132.5439453125
32.1312973,80.3564453125,-0.7861328125,-135.4248046875
32.1689107,80.6005859375,-1.9580078125,-138.4521484375
32.192358,79.9658203125,-1.3232421875,-137.4755859375
32.2207738,79.2333984375,0.4345703125,-129.5166015625
32.2713388,78.0126953125,0.6298828125,-118.9697265625
32.2849324,77.1337890625,1.4111328125,-109.1064453125
32.3139715,75.3271484375,2.2900390625,-101.6357421875
32.3541231,73.9111328125,2.7783203125,-96.8017578125
32.3739828,71.7626953125,3.8525390625,-93.3837890625
32.412087,69.9072265625,3.9990234375,-91.8701171875
32.4350065,68.2958984375,4.3408203125,-93.1396484375
32.4731751,67.2216796875,3.6572265625,-95.9228515625
32.4920468,65.7568359375,4.5361328125,-97.6318359375
32.5302081,64.8291015625,3.2666015625,-100.2685546875
32.5540768,63.0224609375,3.0712890625,-101.7822265625
32.5893255,62.0458984375,2.8759765625,-104.5654296875
32.6152622,60.7763671875,2.7783203125,-107.2021484375
32.6452331,59.6044921875,1.9970703125,-110.3271484375
32.6782617,61.9970703125,1.1669921875,-113.1591796875
32.7071599,68.0517578125,0.4345703125,-116.5283203125
32.7342065,71.5673828125,-0.3955078125,-119.1162109375
32.7714759,74.4482421875,-0.6396484375,-122.6806640625
32.7943227,76.4990234375,-2.2021484375,-125.0244140625
32.8282943,78.1103515625,-2.4951171875,-129.1259765625
32.8583108,79.5751953125,-2.9833984375,-132.1533203125
32.8853798,80.6982421875,-3.9599609375,-135.0830078125
32.923299,80.1123046875,-4.3994140625,-138.1591796875
32.9457833,80.6494140625,-5.9130859375,-140.6005859375
32.974743,79.3310546875,-6.0595703125,-140.6005859375
33.0094735,79.0380859375,-4.7900390625,-133.4716796875
33.0375495,77.9150390625,-3.6181640625,-121.8505859375
33.0704911,76.8896484375,-2.9345703125,-112.5244140625
33.1003156,75.2294921875,-1.6162109375,-104.0771484375
33.1293126,74.2529296875,-1.1279296875,-98.9501953125
33.1583898,72.5439453125,-0.0048828125,-94.2138671875
33.1875167,70.9814453125,0.8251953125,-91.6748046875
33.2183637,69.3701171875,1.6064453125,-91.8212890625
33.2514155,67.5146484375,1.9970703125,-94.5068359375
33.2805675,66.0498046875,1.7529296875,-96.9482421875
33.3085078,64.5361328125,1.5087890625,-98.2666015625
33.3429187,63.0224609375,0.3369140625,-100.9033203125
33.369594,61.9482421875,1.4599609375,-102.8564453125
33.3964026,60.1416015625,0.8740234375,-105.5419921875
33.4327012,59.5556640625,0.0439453125,-107.6416015625
33.4585302,60.7763671875,-0.2490234375,-110.9130859375
33.4934368,67.2216796875,-0.7861328125,-114.2822265625
33.5215015,70.7861328125,-1.0791015625,-117.3583984375
33.5505468,73.5205078125,-2.4462890625,-120.5322265625
33.5825567,76.1083984375,-2.9833984375,-123.2177734375
33.6106656,78.1103515625,-3.8623046875,-126.0009765625
33.6406662,79.6240234375,-4.3994140625,-128.9306640625
33.6726202,80.8447265625,-5.3271484375,-132.1533203125
33.700488,81.6748046875,-5.9619140625,-134.9853515625
33.7335879,81.5771484375,-6.4013671875,-138.0126953125
33.770444,81.4794921875,-7.2802734375,-138.0615234375
33.7916628,81.2841796875,-6.7919921875,-130.7861328125
33.8234827,80.0146484375,-5.7666015625,-119.7021484375
33.8596167,78.4521484375,-4.6435546875,-109.2041015625
33.8796694,76.9384765625,-3.1787109375,-101.0986328125
33.9105363,75.1318359375,-1.7626953125,-94.4091796875
33.9435885,74.3994140625,-0.9326171875,-89.3798828125
33.9705575,71.6162109375,-0.0048828125,-87.2314453125
34.0045721,69.6142578125,0.4833984375,-86.7431640625
34.0337198,68.0517578125,0.4833984375,-88.7939453125
34.0606831,66.7822265625,1.0205078125,-92.4560546875
34.1046482,65.1220703125,1.3623046875,-94.5556640625
34.1226217,62.8759765625,0.7275390625,-96.6064453125
34.1647557,61.5576171875,0.5322265625,-99.1943359375
34.184694,60.9716796875,1.0693359375,-101.8798828125
34.222779,59.6533203125,0.4345703125,-105.2978515625
34.2539094,59.5556640625,0.4345703125,-108.2763671875
34.2758503,64.7802734375,-0.7861328125,-110.9619140625
34.3150461,70.0537109375,-0.5908203125,-114.7705078125
34.3348882,72.9345703125,-0.2490234375,-117.7001953125
34.3708598,75.7177734375,-1.9091796875,-121.2646484375
34.3908443,77.1337890625,-1.6162109375,-124.3896484375
34.4274613,78.8427734375,-2.4951171875,-126.6845703125
34.4649106,79.9169921875,-2.8857421875,-129.7119140625
34.4880102,80.4541015625,-3.8134765625,-132.7392578125
34.5270182,79.3798828125,-4.3017578125,-135.0341796875
34.5461019,79.6240234375,-4.7900390625,-136.6943359375
34.5840848,79.8193359375,-3.5693359375,-130.9326171875
34.6042602,78.9404296875,-2.7392578125,-120.7275390625
34.6422938,77.2314453125,-2.1044921875,-110.2783203125
34.6671513,75.6689453125,-0.6884765625,-102.2705078125
34.7052009,74.4482421875,-0.1025390625,-95.8251953125
34.7230718,72.8369140625,1.4111328125,-92.3095703125
34.7662751,71.2255859375,2.6318359375,-90.1123046875
34.7983833,68.4912109375,3.0224609375,-89.7705078125
34.8138397,67.0263671875,3.1201171875,-92.5537109375
34.8493163,66.0009765625,3.3154296875,-95.2880859375
34.8774001,64.6826171875,3.9501953125,-97.6318359375
34.9153349,62.8271484375,3.4619140625,-99.1943359375
34.9355589,61.5576171875,3.6572265625,-100.9033203125
34.9765661,60.0439453125,3.3154296875,-104.0283203125
34.9986431,58.8232421875,2.6318359375,-106.5673828125
35.0357983,57.8466796875,2.0947265625,-109.4482421875
35.0568008,61.1669921875,1.9970703125,-112.6220703125
35.0941193,66.9775390625,1.2158203125,-116.1865234375
35.117089,70.2001953125,1.0205078125,-119.1650390625
35.154103,73.2275390625,0.0439453125,-122.0458984375
35.1813818,75.1318359375,-0.9326171875,-125.4150390625
35.2162363,76.6943359375,-1.3232421875,-128.8818359375
35.2407345,78.3544921875,-2.3486328125,-131.6162109375
35.2764723,78.7939453125,-3.0810546875,-134.8388671875
35.2974921,78.6962890625,-4.0576171875,-137.6708984375
35.3375615,78.1591796875,-3.9111328125,-137.9638671875
35.35948,77.7685546875,-2.8857421875,-131.0302734375
35.3974563,77.1337890625,-2.1533203125,-120.5322265625
35.4268022,76.3037109375,-1.2255859375,-111.4501953125
35.4499036,75.3759765625,-0.7373046875,-104.2236328125
35.4867758,73.3251953125,-0.0537109375,-99.3896484375
35.5117419,72.3486328125,1.1669921875,-95.8740234375
35.5498613,70.2490234375,1.6064453125,-93.8720703125
35.5719338,68.6376953125,1.9970703125,-95.9228515625
35.6099591,67.1240234375,2.0458984375,-98.9501953125
35.629161,65.8544921875,2.2412109375,-100.9033203125
35.6691407,64.9755859375,1.8505859375,-102.4658203125
35.6910333,64.1455078125,1.3623046875,-105.2490234375
35.7281256,62.0458984375,0.8251953125,-107.6904296875
35.7530301,60.7275390625,0.4833984375,-109.6923828125
35.7894017,59.4580078125,0.5810546875,-112.3291015625
35.8128232,59.0673828125,-0.2490234375,-116.1865234375
35.8500039,63.7548828125,-0.9326171875,-119.3603515625
35.8710156,68.9794921875,-1.4697265625,-122.2412109375
35.909024,71.7138671875,-2.3486328125,-125.5615234375
35.9329166,74.3505859375,-2.8857421875,-128.0517578125
35.9709067,76.2060546875,-3.2275390625,-131.3232421875
35.992824,78.0126953125,-4.1064453125,-134.2041015625
36.0309133,78.9404296875,-4.8876953125,-136.8896484375
36.0560396,79.3310546875,-5.6689453125,-139.6240234375
36.09114,79.6240234375,-5.9619140625,-140.6982421875
36.1120606,78.8916015625,-5.1318359375,-136.6455078125
36.1490835,79.1357421875,-3.8134765625,-124.8291015625
36.1742309,77.2802734375,-3.3740234375,-114.4287109375
36.2113371,77.3291015625,-1.6162109375,-105.2978515625
36.236456,74.9365234375,-0.3466796875,-99.7314453125
36.274396,73.7158203125,0.0439453125,-94.4091796875
36.2943608,72.7392578125,0.6787109375,-90.9423828125
36.3335989,70.3955078125,1.6064453125,-90.3076171875
36.3534585,68.4912109375,2.1435546875,-92.1142578125
36.3896317,66.8798828125,1.7529296875,-95.7763671875
36.4144168,65.8544921875,2.1435546875,-97.4853515625
36.4516018,64.1943359375,1.9970703125,-99.1943359375
36.4775926,62.6806640625,1.4111328125,-100.6103515625
36.5149206,61.2158203125,1.3134765625,-103.8330078125
36.5368065,60.4345703125,1.7041015625,-106.6162109375
36.5722353,59.0673828125,0.6298828125,-109.6435546875
36.5972944,60.9716796875,0.4345703125,-112.6220703125
36.6346585,67.5146484375,-0.3466796875,-115.9912109375
36.6587537,70.9326171875,-0.3466796875,-119.1650390625
36.6967099,73.8134765625,-0.9326171875,-122.0947265625
36.7195865,75.9619140625,-1.4697265625,-125.5126953125
36.755641,77.8173828125,-2.7880859375,-127.9052734375
36.7756063,79.4287109375,-2.7880859375,-131.7138671875
36.8128567,80.6982421875,-3.2275390625,-134.6435546875
36.8387802,80.5517578125,-4.0576171875,-137.6220703125
36.8747664,80.6494140625,-4.9365234375,-137.9150390625
36.9251611,80.2587890625,-3.3740234375,-130.6884765625
36.9299215,79.7705078125,-2.4951171875,-119.0185546875
36.9784106,78.9404296875,-0.8837890625,-109.5947265625
36.9982643,77.1826171875,0.5810546875,-101.1962890625
37.0190148,76.1572265625,2.4365234375,-96.2158203125
37.0583768,74.5458984375,2.9248046875,-92.1142578125
37.0772424,73.1298828125,3.9013671875,-90.0146484375
37.1144775,70.9326171875,4.6337890625,-91.5283203125
37.1393831,68.7353515625,4.7314453125,-93.9208984375
37.1794035,66.7822265625,4.3896484375,-96.8017578125
37.1981928,65.4638671875,5.1220703125,-98.3154296875
37.2363065,65.0244140625,4.4384765625,-100.3173828125
37.261182,62.8271484375,4.6826171875,-102.1240234375
37.2991709,61.0205078125,4.9755859375,-105.4443359375
37.3193121,59.1650390625,4.9755859375,-108.0810546875
37.3503967,58.5791015625,3.9501953125,-111.4990234375
37.3884094,60.3857421875,3.0712890625,-114.2333984375
37.4123276,66.9287109375,3.1689453125,-117.0166015625
37.4494767,71.0791015625,2.4853515625,-120.5322265625
37.4734732,74.3994140625,1.6064453125,-123.6083984375
37.5117963,76.2060546875,1.2646484375,-126.2451171875
37.5295672,77.1337890625,0.7275390625,-129.2724609375
37.5676367,79.1357421875,-0.0537109375,-132.2509765625
37.5905926,79.5263671875,-0.6884765625,-134.9853515625
37.6278964,80.3076171875,-1.4208984375,-137.9150390625
37.6536436,79.9658203125,-1.4208984375,-138.5498046875
37.6850372,78.5986328125,0.2392578125,-132.1533203125
37.7087286,78.1591796875,0.6298828125,-120.6298828125
37.7465566,77.0849609375,1.6552734375,-111.2548828125
37.772691,76.0595703125,2.7294921875,-104.0283203125
37.8024429,74.8388671875,3.3642578125,-98.5107421875
37.8397329,73.8134765625,5.1220703125,-95.3369140625
37.8617676,71.8603515625,5.2197265625,-94.2626953125
37.9119534,69.7119140625,5.5615234375,-94.8974609375
37.9237047,68.2470703125,5.5126953125,-97.4853515625
37.9618072,66.8310546875,5.1220703125,-100.3173828125
37.9841255,65.6103515625,5.2197265625,-101.4404296875
38.0219295,63.9501953125,4.4384765625,-103.1982421875
38.0441397,62.7783203125,4.0966796875,-105.7861328125
38.0800445,61.0205078125,4.0478515625,-107.8369140625
38.1049366,60.0927734375,3.4619140625,-110.4248046875
38.1379046,58.5791015625,2.7294921875,-113.5986328125
38.1658959,59.6044921875,2.2412109375,-116.6259765625
38.1937757,66.0986328125,1.8505859375,-120.2880859375
38.2257907,70.8349609375,0.7275390625,-123.7060546875
38.2558435,73.4716796875,-0.1513671875,-125.9033203125
38.2888995,75.6201171875,-1.1279296875,-128.6865234375
38.316815,77.7685546875,-1.4697265625,-131.3232421875
38.3459434,79.0380859375,-2.3974609375,-134.8388671875
38.3779576,79.7705078125,-3.2275390625,-137.5732421875
38.4068092,80.0634765625,-3.9111328125,-140.2587890625
38.4360858,79.6728515625,-3.9111328125,-138.2080078125
38.4699919,78.9404296875,-2.3974609375,-130.6884765625
38.496879,78.7451171875,-2.0556640625,-120.1904296875
38.5298816,78.1591796875,-1.5185546875,-110.9130859375
38.5578797,76.6943359375,0.1416015625,-104.2724609375
38.5858869,75.2294921875,1.6064453125,-99.2431640625
38.6149615,74.1064453125,1.6064453125,-95.9716796875
38.6489721,72.2998046875,3.0224609375,-94.6533203125
38.6769812,70.3466796875,3.3154296875,-95.6298828125
38.7080974,68.5888671875,3.0224609375,-98.1689453125
38.7401103,67.1728515625,2.8271484375,-100.3173828125
38.7669726,66.2939453125,3.1689453125,-102.4169921875
38.798946,64.3408203125,2.8271484375,-103.6865234375
38.8279952,63.1201171875,2.4853515625,-106.7626953125
38.8579731,61.7529296875,2.4853515625,-108.9599609375
38.8900941,60.0927734375,1.8505859375,-111.4013671875
38.9179277,59.3603515625,1.5576171875,-114.3310546875
38.9529195,60.7763671875,1.2646484375,-118.1884765625
38.9820535,67.6611328125,0.0439453125,-121.2158203125
39.006918,71.2744140625,-0.7373046875,-124.5361328125
39.0410302,73.9599609375,-1.6650390625,-126.9775390625
39.0701023,76.0595703125,-1.6650390625,-129.5166015625
39.1131586,77.6220703125,-2.7392578125,-132.3974609375
39.1381866,79.5751953125,-3.5693359375,-135.7177734375
39.1600142,80.2587890625,-4.6923828125,-138.4521484375
39.1931908,80.2099609375,-5.3271484375,-141.2841796875
39.2311002,79.3798828125,-4.8876953125,-138.7451171875
39.2510428,79.6240234375,-3.9111328125,-130.0048828125
39.2932241,78.8916015625,-2.7392578125,-117.8955078125
39.3121868,78.0126953125,-1.9580078125,-109.0087890625
39.3402009,77.1337890625,-0.9326171875,-101.0498046875
39.3842737,75.1806640625,0.4345703125,-96.3623046875
39.4022793,74.3505859375,1.0205078125,-92.3095703125
39.4311295,72.5439453125,1.8017578125,-91.4306640625
39.4762885,70.2490234375,2.5341796875,-91.8212890625
39.4912367,69.3212890625,2.3876953125,-95.0439453125
39.5363179,67.8564453125,2.5830078125,-97.6806640625
39.5532259,65.7080078125,2.9736328125,-100.3662109375
39.591321,65.3173828125,2.8271484375,-102.6123046875
39.6142302,63.4130859375,2.8271484375,-104.3701171875
39.6505128,61.8017578125,2.7783203125,-107.5927734375
39.6703864,60.7275390625,2.5341796875,-111.0107421875
39.7134566,59.1162109375,1.7529296875,-114.4287109375
39.7350889,61.6552734375,0.7275390625,-117.5048828125
39.7727252,67.8564453125,0.7275390625,-121.1181640625
39.7935991,71.6650390625,-0.0537109375,-123.9501953125
39.8327228,74.0576171875,-0.4931640625,-127.1240234375
39.8556298,76.6943359375,-0.6884765625,-129.9072265625
39.8947941,78.6962890625,-2.0068359375,-132.2021484375
39.914774,79.5263671875,-2.1533203125,-135.0830078125
39.965604,80.6005859375,-2.7880859375,-137.8662109375
39.9864293,80.9423828125,-3.3740234375,-141.0400390625
40.0017723,80.4541015625,-3.5205078125,-140.3076171875
40.0457503,79.9169921875,-2.2021484375,-133.1298828125
40.0685142,79.7705078125,-1.3232421875,-121.7041015625
40.1055659,78.9404296875,0.0927734375,-111.6943359375
40.1244172,77.3291015625,1.1669921875,-103.5400390625
40.1626391,75.3271484375,1.6552734375,-97.2412109375
40.1856302,73.5205078125,3.7060546875,-94.5556640625
40.2216917,72.4462890625,3.5595703125,-92.0166015625
40.2446203,70.5419921875,3.1689453125,-92.1142578125
40.2837177,68.4423828125,3.5595703125,-95.0439453125
40.3077103,66.3916015625,3.2177734375,-97.5830078125
40.3448404,64.6826171875,3.8037109375,-99.1943359375
40.3981135,63.2177734375,3.8037109375,-100.8544921875
40.404253,62.2412109375,3.4619140625,-103.3935546875
40.4419248,61.2158203125,3.2666015625,-105.3955078125
40.4589739,59.2626953125,2.4365234375,-108.2275390625
40.4977049,57.3095703125,2.2900390625,-111.2060546875
40.5175654,57.5048828125,1.1669921875,-114.3310546875
40.5536109,62.8271484375,1.0693359375,-116.8701171875
40.5769256,68.7353515625,0.2392578125,-119.8486328125
40.6147814,71.4208984375,-1.1767578125,-123.2177734375
40.6437877,73.6669921875,-1.5185546875,-126.0498046875
40.6828982,76.2060546875,-1.9580078125,-128.3447265625
40.698751,77.9638671875,-2.4951171875,-130.3466796875
40.736674,78.5986328125,-4.5947265625,-134.0576171875
40.76106,78.8916015625,-4.5947265625,-135.8642578125
40.7993115,78.6474609375,-5.5224609375,-136.2060546875
40.8199616,78.5986328125,-4.5947265625,-129.9072265625
40.8571358,77.9150390625,-4.0576171875,-118.5302734375
40.8790167,77.7197265625,-3.4228515625,-108.3251953125
40.916133,76.0595703125,-1.8115234375,-100.6103515625
40.9410673,74.9365234375,-1.5185546875,-94.4091796875
40.9780046,73.1298828125,-1.5185546875,-90.9912109375
40.9980635,72.3974609375,-0.4443359375,-89.1845703125
41.0371676,69.9560546875,-1.2255859375,-90.4052734375
41.0591679,68.3447265625,-0.3466796875,-92.7490234375
41.0962079,66.6845703125,-0.4931640625,-95.7763671875
41.120322,65.1220703125,-0.1025390625,-97.2900390625
41.1562722,63.9501953125,-0.9326171875,-98.9501953125
41.18352,61.9482421875,-1.0791015625,-100.5126953125
41.2213697,60.4345703125,-0.9814453125,-103.5400390625
41.2405523,59.3603515625,-2.2998046875,-106.1279296875
41.2775939,57.8466796875,-2.4951171875,-108.7646484375
41.302633,57.6025390625,-3.5693359375,-112.3291015625
41.3407711,60.6787109375,-3.3251953125,-116.0400390625
41.3628318,67.0263671875,-4.7900390625,-119.3115234375
41.3988215,70.7373046875,-5.4248046875,-121.6552734375
41.425055,73.3740234375,-6.1572265625,-124.9267578125
41.4609191,74.9853515625,-7.0849609375,-127.6123046875
41.4819164,76.7919921875,-8.2080078125,-130.6884765625
41.51722,77.8173828125,-8.8916015625,-133.2275390625
41.5433857,78.1103515625,-9.3798828125,-136.6943359375
41.5804046,77.5244140625,-9.7705078125,-138.5009765625
41.605446,76.8896484375,-9.5263671875,-134.9853515625
41.6426792,77.3291015625,-8.5009765625,-123.6572265625
41.6637749,76.4013671875,-8.0615234375,-111.7919921875
41.700625,75.4248046875,-6.5478515625,-101.5380859375
41.7232246,73.8134765625,-5.8154296875,-93.8720703125
41.7601426,72.2509765625,-4.6923828125,-88.0615234375
41.7854205,70.5908203125,-4.3994140625,-85.0341796875
41.8223263,68.7841796875,-3.3251953125,-83.8134765625
41.8481775,66.9287109375,-3.0810546875,-84.3505859375
41.8843131,65.4150390625,-3.8134765625,-87.4267578125
41.9041293,64.0478515625,-2.5927734375,-90.0146484375
41.9444694,62.2412109375,-3.4716796875,-92.3583984375
41.9642631,60.6298828125,-3.0322265625,-93.8232421875
42.0005511,59.8974609375,-3.3251953125,-96.0693359375
42.027623,57.9443359375,-3.6669921875,-98.9501953125
42.0646884,56.7724609375,-3.5693359375,-102.0751953125
42.0875547,56.2353515625,-4.3017578125,-104.9560546875
42.1253614,55.9423828125,-4.2041015625,-108.1298828125
42.1443158,61.9482421875,-5.1318359375,-111.9384765625
42.1823382,67.4169921875,-5.9619140625,-115.0146484375
42.2063709,70.8837890625,-6.2060546875,-117.7001953125
42.2446527,73.6669921875,-6.8408203125,-121.1669921875
42.26866,76.0107421875,-7.2802734375,-123.7548828125
42.3046343,77.2802734375,-8.0126953125,-127.2216796875
42.3307403,78.1591796875,-8.5986328125,-129.8583984375
42.3669523,78.5986328125,-10.0146484375,-132.6416015625
42.3868305,77.7197265625,-9.3310546875,-133.8623046875
42.424008,78.2080078125,-8.5009765625,-128.1982421875
42.4492631,77.4267578125,-7.5732421875,-116.5283203125
42.475698,77.0849609375,-6.2060546875,-105.2001953125
42.5132183,75.5712890625,-4.2529296875,-95.3857421875
42.5395192,75.3271484375,-4.2041015625,-88.2568359375
42.5765844,73.7158203125,-2.7392578125,-83.4716796875
42.5995707,71.6650390625,-1.7626953125,-80.4443359375
42.6374851,69.4189453125,-1.3232421875,-80.1025390625
42.6574143,67.3681640625,-1.3232421875,-82.4951171875
42.6945283,65.7568359375,-0.6884765625,-85.2783203125
42.7196608,64.8779296875,-0.0537109375,-87.0849609375
42.7556663,62.9248046875,-0.1513671875,-88.5009765625
42.7794994,61.0693359375,0.1904296875,-90.7958984375
42.8198725,58.8720703125,-0.3955078125,-91.7724609375
42.840747,57.6513671875,-0.1025390625,-93.9697265625
42.8803643,57.1142578125,-0.6396484375,-97.4853515625
42.901338,56.5771484375,-0.9326171875,-99.8291015625
42.938708,56.7724609375,-1.4697265625,-103.4423828125
42.9599795,62.0947265625,-1.5185546875,-106.3232421875
42.9943858,67.2705078125,-1.7626953125,-109.2041015625
43.0216026,70.9326171875,-3.3740234375,-111.6455078125
43.0595113,73.2275390625,-2.9833984375,-113.8427734375
43.0795671,74.9365234375,-4.1552734375,-116.3818359375
43.1298007,76.9384765625,-4.4970703125,-119.5556640625
43.1496968,77.5732421875,-5.3759765625,-121.6552734375
43.1712369,77.2802734375,-6.1083984375,-124.0478515625
43.2102122,77.4267578125,-4.4482421875,-118.4814453125
43.2309487,77.7197265625,-2.7392578125,-108.1298828125
43.2697936,77.2314453125,-3.1787109375,-95.8251953125
43.2925447,76.9873046875,-1.6162109375,-86.5478515625
43.3227291,75.8642578125,-0.9814453125,-80.0048828125
43.3607609,75.0830078125,-0.2490234375,-75.6103515625
43.3816146,73.8134765625,1.2646484375,-73.4619140625
43.417617,72.4951171875,1.6064453125,-73.6083984375
43.4449167,71.2255859375,0.9228515625,-76.7333984375
43.4708521,69.7607421875,1.2158203125,-78.6376953125
43.5097067,67.6123046875,1.6064453125,-80.5908203125
43.5347707,66.5380859375,1.6064453125,-82.8369140625
43.5636879,64.9267578125,1.2158203125,-84.6923828125
43.5957165,64.6337890625,1.4111328125,-87.1826171875
43.624819,63.2177734375,0.2880859375,-89.3310546875
43.6579279,62.2412109375,-0.2490234375,-92.8955078125
43.6838106,61.0205078125,-0.5908203125,-95.6787109375
43.7210412,60.6298828125,-1.1279296875,-99.9267578125
43.7438916,66.0986328125,-1.5673828125,-102.4169921875
43.7768531,71.0791015625,-2.4462890625,-106.0791015625
43.8051685,73.6181640625,-2.9345703125,-108.9599609375
43.8390312,76.4013671875,-3.6669921875,-111.9873046875
43.8649819,77.9150390625,-3.8134765625,-113.5986328125
43.8948539,79.8193359375,-5.2783203125,-117.0166015625
43.9290475,80.6005859375,-5.2783203125,-118.4814453125
43.9560125,80.8447265625,-5.5712890625,-116.0888671875
44.0010812,80.8447265625,-3.7158203125,-106.4208984375
44.0189061,80.3076171875,-2.7392578125,-94.3603515625
44.0458427,80.9423828125,-1.4697265625,-84.2041015625
44.0890404,79.8681640625,-0.2001953125,-77.0263671875
44.1078749,79.3798828125,1.5087890625,-71.0693359375
44.1520959,78.4033203125,2.1435546875,-66.8701171875
44.1678852,76.4501953125,2.9248046875,-65.4541015625
44.197875,74.6923828125,3.7548828125,-67.0654296875
44.2269713,73.0810546875,3.4619140625,-69.4580078125
44.2581269,71.5185546875,4.3896484375,-71.8994140625
44.2889926,70.4931640625,3.6083984375,-73.7060546875
44.3331313,68.9306640625,3.2666015625,-75.7568359375
44.3500291,66.8798828125,3.9501953125,-78.3447265625
44.3940428,66.4404296875,3.4619140625,-81.9580078125
44.411008,64.2919921875,3.1689453125,-84.8876953125
44.4509679,63.5107421875,2.1435546875,-88.5009765625
44.4710096,63.0712890625,1.9482421875,-91.6748046875
44.501145,65.3662109375,1.8505859375,-95.3369140625
44.5431322,71.2255859375,0.9228515625,-98.2177734375
44.5581179,74.7412109375,0.7763671875,-101.0986328125
44.6031517,76.7919921875,-0.3466796875,-103.5888671875
44.6221646,78.9404296875,-1.1279296875,-106.9091796875
44.6466193,80.7470703125,-1.7626953125,-110.4736328125
44.6912752,82.6513671875,-2.5927734375,-113.4033203125
44.7101955,83.3349609375,-2.8857421875,-114.1357421875
44.7544463,83.4326171875,-1.5673828125,-108.0322265625
44.7691761,83.0419921875,-0.1025390625,-97.1435546875
44.813299,82.7978515625,1.7041015625,-85.3759765625
44.8329402,82.3095703125,3.0224609375,-76.7333984375
44.8715828,81.8212890625,5.0244140625,-70.8251953125
44.8912344,80.3564453125,6.4892578125,-66.2353515625
44.936393,80.0146484375,7.7587890625,-63.9404296875
44.9493005,78.6474609375,8.1982421875,-64.1357421875
44.9943379,76.5966796875,8.7841796875,-67.1142578125
45.0133441,75.2783203125,9.1748046875,-70.2880859375
45.0555158,73.9111328125,9.1748046875,-72.8759765625
45.0742025,72.9345703125,9.8095703125,-75.1220703125
45.1131479,71.5185546875,9.3701171875,-78.1005859375
45.1321958,69.9072265625,9.6630859375,-80.2978515625
45.1742568,68.8818359375,10.0048828125,-83.7158203125
45.1944796,66.7333984375,9.1259765625,-86.0107421875
45.2310945,65.1220703125,8.9306640625,-90.0634765625
45.2545303,65.6103515625,7.9541015625,-92.6025390625
45.2903371,70.1513671875,7.5634765625,-96.8994140625
45.3112761,74.6435546875,7.1728515625,-99.7802734375
45.350408,76.5966796875,6.5380859375,-103.1005859375
45.3724723,79.3310546875,6.4404296875,-106.0791015625
45.4135399,81.2353515625,5.7080078125,-110.1318359375
45.4344629,83.6279296875,4.8291015625,-112.4755859375
45.4705706,85.0439453125,3.9013671875,-116.3818359375
45.4956964,85.7275390625,4.3408203125,-116.6259765625
45.5319153,84.8974609375,6.4892578125,-111.4501953125
45.5536446,84.0673828125,6.4892578125,-100.1220703125
45.598704,84.2626953125,8.1494140625,-90.9423828125
45.6278644,83.7744140625,9.6142578125,-83.7158203125
45.6488574,83.3837890625,10.8349609375,-79.1259765625
45.6869419,81.6748046875,12.1533203125,-74.9267578125
45.7079374,80.5029296875,13.3740234375,-73.2666015625
45.745002,78.6962890625,14.2529296875,-74.5849609375
45.7651064,77.1826171875,13.7646484375,-77.8076171875
45.8010675,75.2294921875,14.3505859375,-80.3466796875
45.8283207,74.2529296875,14.2041015625,-83.3251953125
45.8683658,73.1298828125,13.9111328125,-85.8154296875
45.8872618,71.6162109375,13.6181640625,-87.6220703125
45.9261872,69.8095703125,12.7880859375,-90.8935546875
45.9452445,69.2236328125,12.6416015625,-94.2138671875
45.9833777,68.0029296875,12.2998046875,-97.1435546875
46.0062063,66.7822265625,11.1279296875,-100.3173828125
46.0435476,66.9287109375,10.7861328125,-104.1748046875
46.0688266,70.3466796875,9.8095703125,-107.7392578125
46.1078778,74.9853515625,9.6630859375,-110.4736328125
46.1271065,77.9638671875,7.8076171875,-114.3310546875
46.1653523,80.0634765625,7.1728515625,-117.2119140625
46.1872886,82.0654296875,6.8310546875,-120.7275390625
46.2263424,84.0673828125,5.8544921875,-123.9013671875
46.248278,85.4833984375,4.6826171875,-127.1240234375
46.2851582,85.2880859375,3.5595703125,-128.9794921875
46.3113045,85.3369140625,4.6337890625,-126.2939453125
46.3483577,85.8251953125,5.9521484375,-117.5537109375
46.3680676,85.2880859375,6.8798828125,-108.8134765625
46.4051792,84.7509765625,7.7099609375,-101.6357421875
46.4281909,83.8720703125,8.7353515625,-96.9482421875
46.4634274,82.1142578125,9.6630859375,-93.2373046875
46.4903582,81.2353515625,10.8349609375,-92.0654296875
46.5276736,80.4052734375,10.7373046875,-92.2119140625
46.5515048,78.6474609375,11.1279296875,-94.6533203125
46.587669,77.3291015625,10.7373046875,-97.5341796875
46.6086815,75.7666015625,10.5908203125,-99.9267578125
46.6540014,74.4482421875,10.6396484375,-101.6357421875
46.6743334,73.4228515625,9.7119140625,-103.6865234375
46.7175027,71.7138671875,10.1513671875,-106.8115234375
46.736462,70.0537109375,9.8583984375,-108.5205078125
46.7751977,69.4677734375,8.7841796875,-111.9384765625
46.7953845,67.7099609375,7.9541015625,-115.2099609375
46.8317231,65.8544921875,7.3681640625,-118.2861328125
46.8519068,68.3447265625,6.4892578125,-121.7041015625
46.8889683,73.6181640625,5.7568359375,-123.9501953125
46.9117643,77.1826171875,4.3896484375,-126.4892578125
46.9498542,79.7705078125,4.1455078125,-130.4931640625
46.9738163,81.9189453125,3.4130859375,-133.2275390625
47.0108335,83.2861328125,2.2412109375,-135.1806640625
47.0307852,85.1904296875,1.5087890625,-139.3798828125
47.0690877,86.3623046875,1.3623046875,-141.4306640625
47.0931689,86.4111328125,-0.2978515625,-143.6767578125
47.1284212,85.8251953125,0.8740234375,-140.1123046875
47.1537099,85.2880859375,1.4599609375,-132.1533203125
47.192917,85.1416015625,2.6806640625,-123.3154296875
47.214722,84.9951171875,3.1689453125,-115.9912109375
47.2538625,82.9443359375,4.2919921875,-110.5712890625
47.2748761,81.9189453125,4.9267578125,-106.2744140625
47.3129807,80.2099609375,6.4892578125,-103.7841796875
47.3339476,78.7451171875,6.3916015625,-102.5146484375
47.3710411,77.4267578125,7.6123046875,-102.9052734375
47.395949,75.5224609375,6.5380859375,-105.8349609375
47.4319811,74.1552734375,7.0751953125,-108.0322265625
47.455989,72.7392578125,7.0263671875,-109.2041015625
47.4932636,71.7138671875,6.5869140625,-110.1318359375
47.5122287,69.8095703125,6.1962890625,-113.1103515625
47.5475382,68.3935546875,6.6845703125,-115.5029296875
47.5790393,66.7822265625,5.8056640625,-118.0908203125
47.620069,65.8056640625,4.8291015625,-120.5810546875
47.6363428,65.4150390625,4.5849609375,-123.5595703125
47.6806091,66.1962890625,3.3154296875,-126.1962890625
47.7006577,71.1767578125,2.8271484375,-129.1748046875
47.7368349,76.1572265625,2.1435546875,-132.0068359375
47.7566936,78.6962890625,1.8505859375,-134.3505859375
47.7938465,81.0400390625,0.5810546875,-137.3291015625
47.8169791,83.1884765625,-0.2978515625,-139.9169921875
47.8551294,85.1904296875,-0.8349609375,-142.0166015625
47.8800843,85.8740234375,-1.5185546875,-144.5556640625
47.9200573,86.6552734375,-2.1044921875,-147.7294921875
47.9380109,86.2646484375,-2.1044921875,-148.0712890625
47.9762758,85.7275390625,-0.5419921875,-142.3095703125
47.998316,85.6787109375,-0.2490234375,-133.5693359375
48.0371175,85.3857421875,1.1669921875,-124.3896484375
48.0582746,84.1650390625,2.6318359375,-117.5048828125
48.096397,82.3095703125,2.2900390625,-112.3779296875
48.1212523,81.2841796875,3.9501953125,-108.7646484375
48.1502776,80.1611328125,5.6591796875,-105.9814453125
48.1863633,77.5732421875,6.8310546875,-105.0048828125
48.2064761,75.6201171875,7.1728515625,-106.9580078125
48.2446784,74.3505859375,7.3193359375,-108.5205078125
48.2685595,72.9833984375,8.2470703125,-109.7900390625
48.305566,71.1279296875,8.0029296875,-111.0595703125
48.328917,68.8330078125,7.6611328125,-112.3291015625
48.3648875,67.3193359375,7.6123046875,-114.1845703125
48.3895095,66.7822265625,6.8798828125,-116.1865234375
48.4261701,65.2197265625,6.2451171875,-118.3837890625
48.4482893,63.4619140625,6.0498046875,-120.6298828125
48.4856197,62.3388671875,5.0244140625,-123.1689453125
48.5093371,63.9990234375,3.7548828125,-126.3916015625
48.546475,70.0048828125,3.0712890625,-128.3935546875
48.5695319,74.3505859375,2.4365234375,-130.9814453125
48.6007565,77.3779296875,1.5576171875,-133.4716796875
48.6376106,79.8193359375,0.7275390625,-135.5712890625
48.6616777,81.3330078125,-0.0048828125,-138.0126953125
48.6906538,83.0419921875,-1.4697265625,-139.6240234375
48.7226933,83.2861328125,-1.6650390625,-143.2373046875
48.7587688,84.1650390625,-4.0576171875,-144.3603515625
48.7847651,84.2626953125,-2.3974609375,-142.2119140625
48.8138206,83.3837890625,-2.2509765625,-133.5693359375
48.8520272,82.7490234375,-1.3232421875,-124.6337890625
48.8718024,81.5283203125,-0.8837890625,-115.6005859375
48.9050434,80.4541015625,-0.0537109375,-109.8388671875
48.9311254,79.2333984375,0.4345703125,-105.0048828125
48.9700843,78.4521484375,0.3369140625,-102.6123046875
48.9949455,76.8896484375,1.2158203125,-100.8544921875
49.021887,74.6923828125,0.4833984375,-102.4658203125
49.0589325,72.9345703125,1.2158203125,-104.3701171875
49.0834,71.3720703125,0.8740234375,-106.2255859375
49.1205455,70.3466796875,0.6298828125,-107.5439453125
49.148181,69.2236328125,0.2392578125,-109.1064453125
49.1841034,68.0029296875,0.1416015625,-110.6201171875
49.2079789,65.8056640625,-0.1513671875,-112.9638671875
49.2515929,65.2685546875,-1.4208984375,-115.3076171875
49.2611189,63.8037109375,-1.4697265625,-117.7978515625
49.29396,63.2177734375,-2.5927734375,-120.4345703125
49.3305588,62.1435546875,-3.5693359375,-123.6572265625
49.3713002,66.8798828125,-4.3994140625,-126.2451171875
49.3861729,71.9091796875,-4.9365234375,-128.8330078125
49.4323712,74.7900390625,-6.0595703125,-131.8115234375
49.4462955,77.4755859375,-6.8408203125,-134.6923828125
49.4995084,79.3310546875,-7.7197265625,-136.7431640625
49.5198077,80.6005859375,-8.0126953125,-139.5263671875
49.5378808,81.8701171875,-8.6474609375,-142.0654296875
49.5651247,82.5048828125,-9.6240234375,-144.0673828125
49.5950244,82.1142578125,-8.2080078125,-140.9912109375
49.6271522,81.9677734375,-7.7197265625,-131.5673828125
49.673148,81.8212890625,-7.2314453125,-121.2646484375
49.6850446,81.2841796875,-6.9384765625,-112.6220703125
49.7310558,80.6982421875,-5.3759765625,-104.4677734375
49.7522526,79.4287109375,-5.0830078125,-97.9248046875
49.793283,77.9150390625,-4.7412109375,-94.1650390625
49.813514,76.3037109375,-3.8134765625,-92.7978515625
49.8494994,74.7412109375,-3.8623046875,-93.3349609375
49.8697554,72.5439453125,-3.9111328125,-95.4345703125
49.9116594,70.8837890625,-3.7158203125,-98.1689453125
49.9341627,69.5166015625,-4.0576171875,-98.8037109375
49.9730641,68.6376953125,-4.2041015625,-101.4404296875
49.9937297,67.1728515625,-4.0087890625,-103.1005859375
50.0315595,65.1708984375,-4.3505859375,-105.4443359375
50.0503824,63.8037109375,-4.6435546875,-108.9599609375
50.0916437,62.2900390625,-5.0341796875,-111.3525390625
50.1127059,61.3623046875,-6.1083984375,-114.7705078125
50.1527291,61.1181640625,-5.8154296875,-117.8955078125
50.1726433,64.8291015625,-5.6201171875,-121.3623046875
50.2106492,70.7373046875,-7.1337890625,-124.0966796875
50.2321492,74.3017578125,-7.2802734375,-127.1240234375
50.2721591,76.8408203125,-8.4033203125,-129.2724609375
50.2940883,79.1845703125,-8.3544921875,-132.3486328125
50.3301681,81.7724609375,-8.6474609375,-134.8876953125
50.3512399,83.3349609375,-9.5263671875,-139.1357421875
50.3895522,84.6044921875,-10.6005859375,-140.1611328125
50.4085103,84.3115234375,-9.2822265625,-137.4267578125
50.4527935,84.3603515625,-8.0126953125,-129.3701171875
50.4725794,82.9443359375,-7.3779296875,-118.5791015625
50.5116059,83.1396484375,-6.4013671875,-109.3994140625
50.5314866,81.8701171875,-5.2294921875,-102.7099609375
50.5716449,81.5283203125,-4.1552734375,-97.7783203125
50.5915647,80.6005859375,-2.9345703125,-94.8486328125
50.6308291,78.5986328125,-1.9580078125,-93.5302734375
50.6502864,76.5478515625,-1.9580078125,-95.3369140625
50.6948615,74.3994140625,-1.6650390625,-97.2900390625
50.7200944,72.3974609375,-1.9580078125,-99.5361328125
50.7600498,71.1767578125,-2.0068359375,-101.0498046875
50.7782169,70.2001953125,-2.2021484375,-102.8564453125
50.8153659,69.0771484375,-1.5673828125,-105.2978515625
50.8356143,66.1474609375,-2.1533203125,-107.4462890625
50.8746886,63.9990234375,-2.7880859375,-110.5224609375
50.8938904,62.9736328125,-2.6416015625,-113.2568359375
50.9307737,62.2900390625,-3.2763671875,-116.4306640625
50.9570956,62.0947265625,-3.8134765625,-119.8974609375
50.9969939,63.9501953125,-4.3017578125,-122.5341796875
51.0178469,70.0537109375,-4.5947265625,-124.9267578125
51.0549168,73.5205078125,-5.2783203125,-128.1005859375
51.0752194,76.4990234375,-5.9619140625,-130.8837890625
51.1117385,78.9404296875,-5.7666015625,-133.5205078125
51.1348257,80.6494140625,-7.3291015625,-136.3037109375
51.1719547,81.9189453125,-7.7197265625,-139.2822265625
51.1979429,82.9443359375,-7.5732421875,-140.2099609375
51.2347944,83.2861328125,-6.4501953125,-135.8154296875
51.2538546,82.0166015625,-5.9619140625,-126.3916015625
51.2929942,81.8701171875,-5.2294921875,-116.7724609375
51.3159924,81.9189453125,-4.5458984375,-108.9111328125
51.3520609,80.9423828125,-3.4228515625,-103.1494140625
51.3790883,80.1123046875,-2.6904296875,-99.7314453125
51.420355,78.4521484375,-2.4462890625,-98.1201171875
51.4393062,76.6943359375,-1.5185546875,-98.2666015625
51.4762612,75.7177734375,-1.8603515625,-99.8291015625
51.4963201,73.6669921875,-1.1767578125,-102.7099609375
51.5344368,71.6162109375,-2.0556640625,-103.9794921875
51.5564179,70.9326171875,-2.0068359375,-105.1513671875
51.5929253,69.0771484375,-1.5673828125,-107.3974609375
51.6186667,67.6123046875,-2.2509765625,-110.1806640625
51.6539229,65.9033203125,-2.2998046875,-113.4033203125
51.6861347,64.6337890625,-2.5927734375,-115.8935546875
51.7251069,63.3642578125,-3.1787109375,-118.8720703125
51.7502572,62.6806640625,-4.1064453125,-121.6552734375
51.7702838,61.3134765625,-4.5458984375,-124.8291015625
51.808287,65.6103515625,-5.3759765625,-128.3447265625
51.8283262,70.7861328125,-5.8154296875,-130.4443359375
51.866496,74.5947265625,-6.5478515625,-132.8369140625
51.888502,76.3525390625,-7.0361328125,-135.3271484375
51.9247037,78.9404296875,-7.9150390625,-138.7451171875
51.9505795,80.4052734375,-8.8916015625,-141.6259765625
52.0058786,81.1865234375,-9.0380859375,-142.8955078125
52.0246951,82.0654296875,-7.9150390625,-138.5498046875
52.0406767,81.4306640625,-6.6455078125,-129.4677734375
52.0819071,81.9189453125,-6.0595703125,-119.2626953125
52.1018266,82.0654296875,-4.7900390625,-110.9130859375
52.1450591,80.6982421875,-3.4716796875,-103.7353515625
52.1640308,79.7216796875,-1.9580078125,-99.4384765625
52.2090822,78.9404296875,-1.4208984375,-95.8251953125
52.2287113,77.0361328125,-0.5419921875,-95.5810546875
52.2658206,75.6689453125,-0.2001953125,-97.1435546875
52.2807229,73.8623046875,-0.7373046875,-99.5361328125
52.3167677,72.4462890625,-0.0048828125,-101.0986328125
52.3437105,70.4443359375,-0.5908203125,-103.7841796875
52.3753188,69.2236328125,0.0927734375,-105.2978515625
52.4152446,67.5634765625,-0.7373046875,-107.3974609375
52.4372703,66.4404296875,-0.0537109375,-110.1318359375
52.4731444,65.0244140625,-1.1279296875,-112.5244140625
52.4942269,63.0224609375,-1.0791015625,-115.9423828125
52.5302058,62.1435546875,-1.4697265625,-119.2138671875
52.5503018,61.5576171875,-2.1533203125,-121.7041015625
52.5888825,64.2919921875,-3.4716796875,-124.5361328125
52.6118413,70.1513671875,-3.5205078125,-127.8076171875
52.650023,73.6669921875,-4.2529296875,-130.5908203125
52.671163,76.2548828125,-4.6435546875,-133.2763671875
52.70837,78.5498046875,-4.9365234375,-135.7666015625
52.7323061,81.1865234375,-5.3271484375,-138.5009765625
52.7695257,82.3095703125,-6.3037109375,-140.8447265625
52.8063682,83.1396484375,-5.2783203125,-138.5009765625
52.8224779,83.1884765625,-3.8623046875,-129.8583984375
52.8614232,82.6025390625,-2.2998046875,-118.9208984375
52.885495,82.3583984375,-1.8115234375,-110.0341796875
52.9215895,82.1142578125,0.3857421875,-101.8310546875
52.9446574,81.2841796875,1.6552734375,-96.9482421875
52.9807921,80.3564453125,3.1689453125,-94.0185546875
53.0059711,79.4287109375,3.8525390625,-92.4560546875
53.0444671,77.5244140625,4.3408203125,-93.9208984375
53.0663451,75.7666015625,4.4384765625,-96.1669921875
53.1059732,74.1552734375,4.9267578125,-98.3154296875
53.1259829,72.1044921875,5.7080078125,-99.9755859375
53.1639839,70.3955078125,5.1708984375,-102.0263671875
53.1872003,68.4912109375,5.3173828125,-104.2236328125
53.2249033,67.8564453125,5.1708984375,-107.3974609375
53.2478196,65.6591796875,4.7802734375,-109.6435546875
53.2868623,64.2919921875,4.7314453125,-112.4267578125
53.3058289,62.6318359375,3.8525390625,-115.6494140625
53.3418269,61.6552734375,3.4130859375,-119.5556640625
53.3658687,61.7041015625,3.1689453125,-122.1435546875
53.4028809,66.9775390625,2.8759765625,-125.2197265625
53.4272605,72.2998046875,1.8505859375,-127.2705078125
53.464559,74.9365234375,1.5576171875,-130.4443359375
53.4855064,77.5732421875,0.7763671875,-133.2763671875
53.5245587,79.5751953125,-0.4931640625,-135.7177734375
53.5467111,81.0400390625,-0.8349609375,-138.3544921875
53.5827881,81.7724609375,0.1416015625,-138.7939453125
53.6089443,83.1884765625,1.5087890625,-132.2998046875
53.6450326,82.2607421875,2.0947265625,-122.5341796875
53.6700367,81.7236328125,3.0224609375,-112.0849609375
53.7081672,81.4794921875,4.6826171875,-104.3212890625
53.7289433,80.9912109375,5.7080078125,-98.1689453125
53.7670259,80.3564453125,6.8798828125,-94.7998046875
53.787959,78.7451171875,7.5634765625,-93.0908203125
53.8264558,76.9873046875,7.8564453125,-93.6767578125
53.8491876,75.4736328125,7.6123046875,-96.6552734375
53.8873681,74.2041015625,7.8564453125,-98.2177734375
53.9113947,71.8115234375,7.8564453125,-100.4638671875
53.9496971,70.9814453125,7.6611328125,-102.1728515625
53.9696341,69.6142578125,7.4169921875,-104.3212890625
54.0035831,68.1005859375,7.3193359375,-107.0556640625
54.0306584,66.6357421875,5.6591796875,-109.3017578125
54.0696766,64.9755859375,5.7568359375,-112.7685546875
54.0925012,63.9013671875,4.4384765625,-115.4052734375
54.1206079,63.1689453125,3.7548828125,-118.7255859375
54.1565138,61.9482421875,3.1201171875,-121.6064453125
54.181678,63.9501953125,2.3876953125,-125.3173828125
54.2117158,69.6630859375,1.1669921875,-127.7099609375
54.2407571,73.8134765625,0.7763671875,-130.7861328125
54.2776553,77.1337890625,-0.1025390625,-133.4716796875
54.31594,79.0380859375,-0.9326171875,-136.3525390625
54.3347404,80.7958984375,-1.6162109375,-138.6962890625
54.3801339,82.5537109375,-0.8837890625,-136.5478515625
54.4000524,82.5537109375,-0.2001953125,-128.4423828125
54.4241206,82.6513671875,1.5087890625,-117.0166015625
54.4531306,82.8466796875,2.1435546875,-107.9345703125
54.4803619,82.1630859375,3.3642578125,-100.9033203125
54.5183197,81.6259765625,4.6826171875,-96.7529296875
54.5423972,81.4306640625,5.0732421875,-93.9697265625
54.5754119,79.6728515625,5.7568359375,-93.4326171875
54.6034311,78.7939453125,4.7314453125,-94.5556640625
54.63344,76.9384765625,5.6591796875,-97.8759765625
54.6652549,75.2294921875,5.2197265625,-99.3408203125
54.7113172,73.7646484375,4.5849609375,-101.2451171875
54.7313851,72.2021484375,4.4873046875,-102.6123046875
54.7683104,70.6396484375,4.4384765625,-105.5908203125
54.7882843,69.1259765625,3.8525390625,-107.3974609375
54.8316327,67.9052734375,3.3154296875,-110.0341796875
54.8455375,66.3427734375,3.1689453125,-113.9892578125
54.89369,64.5849609375,2.9248046875,-116.4306640625
54.9126112,63.3642578125,2.0458984375,-119.4091796875
54.9477631,62.8271484375,1.0693359375,-123.3154296875
54.9693825,65.7080078125,0.3369140625,-125.4150390625
55.0124597,71.9580078125,-0.6396484375,-128.1982421875
55.0318763,75.4736328125,-0.7373046875,-131.5673828125
55.0707015,78.0615234375,-1.9580078125,-134.4482421875
55.0907436,79.8193359375,-2.3486328125,-136.4990234375
55.1299212,81.6748046875,-3.6669921875,-138.5986328125
55.1512207,83.4326171875,-2.0556640625,-134.3017578125
55.1919367,83.2861328125,-1.5673828125,-123.9501953125
55.21071,82.6513671875,0.4345703125,-112.2802734375
55.2489479,82.6025390625,0.9228515625,-102.2705078125
55.267849,82.7001953125,0.9716796875,-94.6044921875
55.3089524,81.5283203125,3.1201171875,-90.3076171875
55.3279327,81.0888671875,3.7548828125,-87.2802734375
55.3710764,79.2822265625,3.8037109375,-86.4501953125
55.3911224,78.6962890625,4.7802734375,-88.2080078125
55.4271654,76.9384765625,4.5361328125,-91.1376953125
55.4488051,74.7412109375,4.6826171875,-93.5791015625
55.4909979,73.1298828125,4.6826171875,-95.8740234375
55.5099787,71.2744140625,4.6826171875,-97.1923828125
55.5621508,70.1513671875,4.2431640625,-99.5361328125
55.5821595,69.2724609375,4.0966796875,-102.4658203125
55.618276,67.8564453125,3.6572265625,-105.5908203125
55.6260337,66.3916015625,3.1689453125,-108.2275390625
55.6728384,64.7802734375,2.4853515625,-112.6708984375
55.6951714,63.4130859375,2.2412109375,-115.5029296875
55.734343,63.4619140625,0.8251953125,-118.9697265625
55.7544146,67.5146484375,1.0205078125,-121.8017578125
55.7894097,73.4716796875,-0.0537109375,-125.3662109375
55.8094639,76.8896484375,0.0439453125,-127.8564453125
55.8513752,78.7939453125,-1.3232421875,-130.6884765625
55.8755014,80.6982421875,-2.0068359375,-134.0576171875
55.9126655,82.5048828125,-2.4462890625,-135.7177734375
55.9315237,84.6044921875,-1.3720703125,-132.8857421875
55.9695585,84.9951171875,-0.3955078125,-122.5341796875
55.9907806,84.7998046875,0.6787109375,-111.2060546875
56.0297735,83.8232421875,2.5830078125,-101.0986328125
56.0519416,83.6279296875,3.1201171875,-94.7509765625
56.0956427,82.9443359375,3.8037109375,-89.5751953125
56.1159295,82.1630859375,4.7314453125,-87.0361328125
56.1530056,81.3818359375,5.6103515625,-86.1572265625
56.1720275,79.2822265625,5.8056640625,-88.1103515625
56.224506,77.9150390625,5.7080078125,-90.3564453125
56.2434935,75.3271484375,6.4404296875,-92.3583984375
56.2795327,73.4716796875,5.9033203125,-94.2626953125
56.2994121,72.5439453125,5.5615234375,-96.7529296875
56.335459,71.3232421875,5.3173828125,-98.3642578125
56.3564826,70.0048828125,4.5361328125,-100.6591796875
56.3939413,67.8076171875,4.4384765625,-103.4912109375
56.4143657,65.8544921875,3.9990234375,-106.5185546875
56.4524445,64.5849609375,3.6083984375,-109.2529296875
56.471793,63.5595703125,2.5341796875,-112.6708984375
56.5126113,62.8759765625,2.2900390625,-115.5517578125
56.5415348,65.2197265625,1.4111328125,-117.8955078125
56.5785616,71.2744140625,0.2392578125,-120.2880859375
56.597534,74.3017578125,-0.3955078125,-122.6806640625
56.6356098,77.8662109375,-1.6650390625,-125.8544921875
56.654808,79.4775390625,-2.4462890625,-128.3935546875
56.6917609,81.8701171875,-3.7158203125,-130.8837890625
56.7117704,82.9931640625,-2.9833984375,-129.1259765625
56.7528918,83.6279296875,-1.6650390625,-120.0439453125
56.7739396,83.8720703125,-0.7373046875,-108.4228515625
56.8127747,82.9931640625,-0.3466796875,-98.6572265625
56.835106,83.2373046875,0.4345703125,-91.0888671875
56.8721617,82.7001953125,0.7275390625,-86.4501953125
56.8960036,81.7236328125,1.8994140625,-83.9111328125
56.9321353,81.0888671875,2.3876953125,-83.0810546875
56.9532721,79.6728515625,2.5830078125,-84.7900390625
56.9901683,78.4521484375,1.9970703125,-88.1591796875
57.0160573,76.8896484375,1.9482421875,-90.7470703125
57.052878,75.1806640625,1.6552734375,-91.5283203125
57.077198,73.1787109375,2.1435546875,-93.2861328125
57.1141273,72.1533203125,1.3134765625,-95.1904296875
57.1341034,71.3232421875,0.9716796875,-98.0224609375
57.1700966,69.8583984375,0.7763671875,-100.8544921875
57.1972304,68.8330078125,-0.1025390625,-104.2724609375
57.2360557,66.9775390625,-1.3720703125,-107.0556640625
57.2571648,65.8544921875,-1.5185546875,-110.5712890625
57.2923015,65.2685546875,-1.7138671875,-113.3056640625
57.3201524,65.7080078125,-3.2763671875,-116.2353515625
57.3562981,71.6162109375,-3.5693359375,-119.0185546875
57.3844874,75.8154296875,-4.2041015625,-121.3623046875
57.4205526,78.8427734375,-4.6435546875,-124.5849609375
57.4404709,80.2099609375,-6.0107421875,-127.1240234375
57.477673,82.2607421875,-6.8408203125,-129.8095703125
57.4982234,84.0185546875,-7.1826171875,-130.7373046875
57.5358159,84.2626953125,-5.9130859375,-126.3916015625
57.5616926,83.9697265625,-5.0830078125,-113.6962890625
57.5989625,83.8720703125,-4.2529296875,-101.0009765625
57.6210492,83.7744140625,-3.0810546875,-92.7490234375
57.6590371,83.7744140625,-2.0068359375,-84.8388671875
57.6790397,83.1884765625,-1.1279296875,-80.5419921875
57.7181915,81.4794921875,-0.2978515625,-77.3681640625
57.7414483,80.5029296875,0.0927734375,-76.5869140625
57.7752261,79.1357421875,-0.2490234375,-78.7353515625
57.812754,77.8662109375,0.1904296875,-81.5673828125
57.8328018,76.0107421875,0.3369140625,-83.5693359375
57.8689881,73.6669921875,0.1904296875,-85.2783203125
57.8931485,72.2509765625,-0.1025390625,-87.1337890625
57.9352137,71.2255859375,-0.2490234375,-88.7451171875
57.9570518,69.1259765625,-0.4931640625,-91.3330078125
57.9973077,67.6611328125,-0.9326171875,-94.7998046875
58.0102491,66.5869140625,-1.7626953125,-97.8271484375
58.0455638,64.5849609375,-2.8369140625,-100.7568359375
58.071425,63.8037109375,-3.0322265625,-104.1259765625
58.1121553,62.9248046875,-2.8857421875,-107.4462890625
58.1353185,65.7080078125,-4.0576171875,-110.9619140625
58.1713125,71.9580078125,-4.7900390625,-114.1845703125
58.1913005,75.8154296875,-5.1806640625,-116.9189453125
58.2302554,78.5009765625,-6.0595703125,-120.0439453125
58.2508474,80.8447265625,-6.4990234375,-122.9248046875
58.2874556,82.4560546875,-6.8408203125,-125.7568359375
58.3132333,84.6044921875,-6.6455078125,-126.5869140625
58.348634,85.4345703125,-5.1318359375,-119.9951171875
58.3745446,86.1181640625,-4.1552734375,-107.9345703125
58.4119106,85.5322265625,-3.1298828125,-96.1181640625
58.4341049,85.6298828125,-1.9580078125,-86.6455078125
58.4714029,84.7021484375,-0.8837890625,-80.1513671875
58.4937913,83.6767578125,-0.0048828125,-75.5615234375
58.5288196,82.6025390625,1.1669921875,-72.9736328125
58.5567976,81.5771484375,2.0458984375,-73.2666015625
58.5948308,80.7470703125,1.8017578125,-75.6591796875
58.6178364,78.7451171875,1.9970703125,-78.6865234375
58.656878,76.5478515625,2.3876953125,-80.7861328125
58.6737938,74.5947265625,2.2900390625,-81.9580078125
58.7098584,73.1298828125,2.2900390625,-83.9599609375
58.7357618,71.9091796875,2.3876953125,-85.3759765625
58.7858065,70.3955078125,2.4365234375,-87.9638671875
58.8058229,69.2236328125,2.0458984375,-90.0146484375
58.8268311,67.6611328125,1.6552734375,-92.2607421875
58.864877,65.6591796875,1.3623046875,-95.7275390625
58.8869753,63.5107421875,0.5322265625,-98.8037109375
58.9287777,63.6083984375,0.0439453125,-101.5380859375
58.9497972,65.9033203125,-0.7373046875,-104.8095703125
58.9878531,72.4462890625,-1.3232421875,-107.2021484375
59.0057939,76.1572265625,-2.0556640625,-109.9853515625
59.0419411,78.7451171875,-2.8857421875,-112.2314453125
59.0657885,81.0888671875,-3.1787109375,-114.9658203125
59.1048132,83.0419921875,-4.3505859375,-117.6513671875
59.1288227,84.6044921875,-3.0322265625,-117.1630859375
59.1687973,85.7763671875,-2.0556640625,-110.1318359375
59.190873,85.8251953125,-2.5439453125,-96.4111328125
59.2198167,85.2392578125,-1.1279296875,-85.2783203125
59.2488251,85.1904296875,1.0205078125,-77.2216796875
59.2847954,85.1904296875,1.4111328125,-70.9716796875
59.3128453,84.5556640625,1.9970703125,-68.1396484375
59.3468097,83.8232421875,2.9248046875,-65.4541015625
59.3698253,82.2607421875,2.3388671875,-67.1142578125
59.4058888,81.3818359375,2.3388671875,-69.5068359375
59.4278505,79.7216796875,2.5830078125,-71.9482421875
59.4628149,77.9638671875,2.7294921875,-73.3154296875
59.4918934,76.8408203125,2.4365234375,-74.9267578125
59.5368549,75.8154296875,2.1435546875,-76.3916015625
59.556836,73.7158203125,1.8505859375,-78.8330078125
