Timestamp,PPG_Forehead,PPG_Earlobe,PPG_Finger
0.00309289999999995,1.1865234375,0.185546875,-22.8271484375
0.0335993000000001,1.1865234375,0.185546875,0.185546875
0.0352838000000002,1.1865234375,0.185546875,0.185546875
0.0381714999999998,1.1865234375,0.185546875,0.185546875
0.0423800000000001,1.1865234375,0.185546875,0.185546875
0.0443272000000001,1.1865234375,0.185546875,0.185546875
0.0460455,1.1865234375,86.2158203125,0.185546875
0.0503548,1.1865234375,-35.7861328125,82.5537109375
0.0515477999999998,1.1865234375,-36.5185546875,-13.1591796875
0.0545955,1.1865234375,-37.4462890625,-15.8935546875
0.0575109,1.1865234375,-39.6923828125,-19.2626953125
0.0603766000000001,1.1865234375,-39.9853515625,-21.8994140625
0.0632682,1.1865234375,-41.4501953125,-24.3896484375
0.0662219999999998,1.1865234375,-43.1103515625,-27.4169921875
0.0703171,1.1865234375,-44.0380859375,-30.2490234375
0.0712837999999998,1.1865234375,-45.4541015625,-33.5693359375
0.0759935999999999,1.1865234375,-46.4306640625,-35.8642578125
0.0768534999999999,1.1865234375,-46.3330078125,-39.0380859375
0.0777898000000001,1.1865234375,-46.6748046875,-41.3330078125
0.0786243,1.1865234375,-44.5263671875,-36.3525390625
0.0836513999999999,1.1865234375,-42.5732421875,-26.1474609375
0.0847373,1.1865234375,-41.2060546875,-14.5263671875
0.0858048999999999,1.1865234375,-38.6181640625,-3.9306640625
0.0893107,1.1865234375,-35.9326171875,4.6142578125
0.0924518000000001,1.1865234375,-34.5166015625,11.9873046875
0.0952928000000002,1.1865234375,-33.3935546875,17.1142578125
0.0981448,1.1865234375,-32.9541015625,19.0185546875
0.1010356,1.1865234375,-32.2216796875,16.5283203125
0.1039917,1.1865234375,-31.8798828125,13.2568359375
0.1069256,1.1865234375,-31.8310546875,12.0361328125
0.1099213,1.1865234375,-32.9541015625,9.8388671875
0.1128736,1.1865234375,-33.1005859375,8.4228515625
0.115797,1.1865234375,-33.5888671875,5.3955078125
0.118796,1.1865234375,-33.4423828125,3.1494140625
0.1217807,1.1865234375,-34.0283203125,-0.8056640625
0.1247407,1.1865234375,-34.2724609375,-3.3447265625
0.127792,1.1865234375,-34.6142578125,-6.6162109375
0.130723,1.1865234375,-35.6884765625,-10.0341796875
0.1336767,1.1865234375,-36.9580078125,-12.9150390625
0.13653,1.1865234375,-36.9091796875,-15.9912109375
0.1396919,1.1865234375,-37.1533203125,-19.5068359375
0.14263,1.1865234375,-38.3740234375,-22.6806640625
0.1457237,1.1865234375,-38.9111328125,-25.1708984375
0.1486197,1.1865234375,-39.5458984375,-28.1005859375
0.1516288,1.1865234375,-40.0341796875,-31.4697265625
0.1546628,1.1865234375,-40.7666015625,-34.5458984375
0.1576101,1.1865234375,-41.3037109375,-37.6220703125
0.1606272,1.1865234375,-40.1318359375,-38.5009765625
0.163575,1.1865234375,-38.8134765625,-34.0576171875
0.1665967,1.1865234375,-37.0068359375,-23.2666015625
0.16966,1.1865234375,-35.8349609375,-11.2060546875
0.172558,1.1865234375,-34.2724609375,-1.1474609375
0.175568,1.1865234375,-32.7099609375,7.3486328125
0.1784715,1.1865234375,-32.4658203125,14.0869140625
0.1815075,1.1865234375,-31.5869140625,17.5537109375
0.1845007,1.1865234375,-30.6103515625,16.0888671875
0.1876162,1.1865234375,-30.4150390625,13.1103515625
0.190501,1.1865234375,-30.4638671875,10.6689453125
0.1934683,1.1865234375,-30.8056640625,7.2998046875
0.1962077,1.1865234375,-30.7080078125,5.7861328125
0.198539,99.7900390625,-31.1962890625,2.9541015625
0.1989969,-96.3134765625,-31.7822265625,-0.1220703125
0.1993228,-94.2138671875,-32.0751953125,-3.2958984375
0.1996431,-92.9443359375,-32.0263671875,-7.1044921875
0.1999681,-93.7744140625,-32.5634765625,-10.5712890625
0.2002879,-95.0927734375,-34.0283203125,-14.4775390625
0.2005788,-95.2880859375,-34.7607421875,-17.7001953125
0.2008719,-96.0205078125,-34.5166015625,-20.6787109375
0.2011939,-96.5576171875,-35.1513671875,-24.1455078125
0.2014864,-98.1201171875,-35.9326171875,-27.0751953125
0.2017782,-99.0966796875,-37.9345703125,-30.1025390625
0.2021289,-100.7080078125,-38.9111328125,-32.8369140625
0.2024558,-101.9287109375,-39.9853515625,-36.1572265625
0.2027491,-103.2958984375,-40.4736328125,-39.6728515625
0.2030484,-104.5654296875,-40.7666015625,-42.6025390625
0.203346,-105.2490234375,-40.7177734375,-44.6044921875
0.2036362,-106.1767578125,-39.4482421875,-43.0419921875
0.2039318,-107.3486328125,-37.5927734375,-32.6904296875
0.2042276,-108.2763671875,-34.5654296875,-20.2392578125
0.2045229,-108.4716796875,-33.3935546875,-7.5439453125
0.2048194,-109.5947265625,-31.6845703125,2.5146484375
0.2051092,-111.2060546875,-29.2919921875,11.1083984375
0.2054772,-112.6220703125,-27.5830078125,16.2353515625
0.2058005,-113.4521484375,-27.5830078125,18.7255859375
0.2060927,-114.5263671875,-26.9482421875,16.0400390625
0.2063843,-113.0126953125,-26.6064453125,11.6943359375
0.2066859,-107.4951171875,-26.0205078125,8.6669921875
0.2069757,-102.8076171875,-26.4599609375,5.8349609375
0.2072684,-99.8779296875,-27.1923828125,3.2958984375
0.2075659,-96.8505859375,-27.5341796875,-0.2685546875
0.2078583,-93.8720703125,-28.8525390625,-3.1982421875
0.2081499,-92.2119140625,-28.7060546875,-6.4697265625
0.2084392,-91.9677734375,-30.1708984375,-10.4248046875
0.2087958,-94.1650390625,-30.6103515625,-13.4521484375
0.2091001,-95.7275390625,-32.7099609375,-17.0654296875
0.2093901,-94.8486328125,-33.6865234375,-21.1181640625
0.2096803,-96.3623046875,-35.3466796875,-24.5361328125
0.2099902,-96.7529296875,-35.5908203125,-26.8310546875
0.2102775,-97.8271484375,-36.5673828125,-30.4443359375
0.2105956,-99.5849609375,-38.6181640625,-33.2275390625
0.2108949,-101.8798828125,-40.0830078125,-36.3037109375
0.2111854,-104.0771484375,-41.8408203125,-38.8427734375
0.2114741,-105.9814453125,-43.5498046875,-42.8466796875
0.2117718,-107.5439453125,-44.1357421875,-46.1181640625
0.2121456,-108.8623046875,-44.5751953125,-48.3154296875
0.2124373,-110.0341796875,-43.2568359375,-44.7021484375
0.2127276,-111.3037109375,-41.6455078125,-35.4248046875
0.2130213,-111.7919921875,-40.1318359375,-21.0205078125
0.2133147,-113.4521484375,-38.2275390625,-9.0576171875
0.2136059,-113.8916015625,-36.2744140625,1.4404296875
0.2138964,-115.6982421875,-35.1513671875,8.6669921875
0.2142976,-117.6025390625,-34.0771484375,14.1357421875
0.2146333,-118.5302734375,-33.2470703125,15.2587890625
0.2149229,-118.4814453125,-33.2958984375,12.8662109375
0.2152778,-113.8427734375,-33.1494140625,8.4716796875
0.2155691,-109.0576171875,-33.0029296875,4.6630859375
0.2158599,-105.2001953125,-34.1259765625,1.1962890625
0.2161514,-101.4404296875,-34.9560546875,-1.3427734375
0.2164573,-98.4130859375,-35.8349609375,-4.7607421875
0.2167527,-95.6787109375,-36.8115234375,-8.0322265625
0.2170509,-93.9208984375,-37.4462890625,-11.8408203125
0.2173712,-93.1396484375,-37.9833984375,-14.8193359375
0.2176612,-95.7275390625,-39.7900390625,-18.8720703125
0.2179544,-96.2646484375,-40.2294921875,-22.2412109375
0.2182562,-95.8740234375,-41.8896484375,-26.2451171875
0.2186364,-97.2412109375,-43.1591796875,-29.5166015625
0.2189272,-99.0478515625,-45.1611328125,-32.2509765625
0.2192213,-100.6103515625,-45.7470703125,-35.7177734375
0.219547,-103.0517578125,-47.2607421875,-37.9638671875
0.2198602,-103.7841796875,-48.6767578125,-41.1376953125
0.220155,-105.8837890625,-50.3857421875,-44.2138671875
0.2204459,-107.2509765625,-51.3134765625,-47.1435546875
0.2207419,-108.3740234375,-52.3388671875,-50.3173828125
0.2210327,-109.4970703125,-52.9736328125,-53.1494140625
0.2213224,-111.5478515625,-51.5576171875,-53.5888671875
0.2217956,-111.6943359375,-49.7998046875,-46.9482421875
0.2221982,-113.1591796875,-48.9697265625,-34.3017578125
0.2225435,-113.8916015625,-46.2353515625,-21.9970703125
0.2229163,-115.9912109375,-44.7216796875,-11.2060546875
0.2232648,-117.2119140625,-42.6708984375,-2.7099609375
0.223612,-118.0908203125,-41.6455078125,3.1494140625
0.2240254,-119.1650390625,-40.0830078125,7.1044921875
0.2244103,-118.9208984375,-39.7412109375,5.8837890625
0.2247889,-115.3564453125,-39.9365234375,0.9033203125
0.2251575,-111.1572265625,-39.3994140625,-2.5146484375
0.2255015,-106.7626953125,-39.5458984375,-5.0537109375
0.2258409,-103.8330078125,-39.9853515625,-7.7880859375
0.2262199,-100.1708984375,-39.7900390625,-8.5205078125
0.2265921,-97.6318359375,-40.0830078125,-13.2080078125
0.2269793,-95.6298828125,-40.9130859375,-16.5771484375
0.2273802,-94.6533203125,-41.4013671875,-19.4580078125
0.2277218,-96.4111328125,-42.2802734375,-23.1201171875
0.2280629,-97.1923828125,-43.3544921875,-26.4404296875
0.2284123,-97.2900390625,-43.2080078125,-30.0048828125
0.2287658,-98.9990234375,-44.5751953125,-33.1298828125
0.2291062,-100.1708984375,-46.2353515625,-35.3759765625
0.2294478,-101.0986328125,-46.6259765625,-39.0869140625
0.2298068,-103.5400390625,-47.6025390625,-41.5283203125
0.2301501,-104.6630859375,-48.7744140625,-44.2138671875
0.2305434,-106.1279296875,-49.5556640625,-47.1435546875
0.2309222,-107.5927734375,-50.4345703125,-50.5126953125
0.2312698,-108.6181640625,-51.7529296875,-53.2470703125
0.2316111,-110.4248046875,-51.9970703125,-56.1279296875
0.2319678,-111.7919921875,-51.5576171875,-57.8857421875
0.2323117,-112.3291015625,-49.9462890625,-52.8564453125
0.232651,-113.5009765625,-47.9931640625,-41.3818359375
0.233,-114.5263671875,-46.2353515625,-27.8564453125
0.2333451,-115.3564453125,-44.5263671875,-16.4794921875
0.2336427,-116.7724609375,-42.9638671875,-7.3486328125
0.2339327,-117.7490234375,-40.9130859375,-0.6591796875
0.2342257,-118.8720703125,-40.4248046875,2.7099609375
0.234516,-119.7509765625,-39.1552734375,3.2958984375
0.2348078,-118.8720703125,-39.4970703125,-0.8056640625
0.2351091,-114.8193359375,-38.6181640625,-4.2236328125
0.2354142,-109.5458984375,-37.9345703125,-6.7626953125
0.2357069,-106.2744140625,-38.2763671875,-9.3505859375
0.2359999,-103.2470703125,-38.7646484375,-11.5478515625
0.2363101,-99.3408203125,-39.4970703125,-14.7216796875
0.2366012,-97.2900390625,-39.8388671875,-17.6025390625
0.2368955,-95.2880859375,-41.4013671875,-20.7763671875
0.2371891,-96.1181640625,-41.2060546875,-24.6826171875
0.2374984,-97.4365234375,-42.0849609375,-28.1982421875
0.2377885,-97.4853515625,-43.4521484375,-31.4208984375
0.2380796,-98.7548828125,-44.1845703125,-34.8876953125
0.2383708,-99.2919921875,-45.6982421875,-38.5009765625
0.2386699,-101.0986328125,-46.8212890625,-41.6259765625
0.2389636,-102.4658203125,-47.3583984375,-44.3603515625
0.2392525,-104.2236328125,-48.9697265625,-46.4111328125
0.2396362,-105.3466796875,-49.9951171875,-48.7548828125
0.239933,-106.9580078125,-51.7529296875,-52.2216796875
0.2402287,-108.5693359375,-52.2412109375,-54.9560546875
0.240522,-108.9599609375,-53.9990234375,-58.1787109375
0.2408303,-110.9130859375,-52.6806640625,-60.7666015625
0.2411208,-112.1337890625,-51.8017578125,-58.9111328125
0.2414127,-113.5986328125,-49.0673828125,-48.3154296875
0.2417049,-114.6728515625,-46.6748046875,-35.6201171875
0.2420119,-115.7470703125,-45.3076171875,-22.6806640625
0.2423013,-117.4072265625,-42.2314453125,-11.7919921875
0.2425963,-118.0908203125,-40.7177734375,-4.3701171875
0.2428984,-119.8974609375,-38.1787109375,1.3916015625
0.2431893,-120.5810546875,-37.7392578125,3.6376953125
0.243504,-120.0439453125,-37.2021484375,1.5380859375
0.2438412,-117.6513671875,-37.1044921875,-1.8310546875
0.2441376,-112.7685546875,-36.8603515625,-5.5419921875
0.2444297,-109.1552734375,-37.3486328125,-7.7880859375
0.2447231,-105.6884765625,-38.1787109375,-10.0830078125
0.245015,-102.0263671875,-38.4716796875,-12.7197265625
0.2453378,-99.3408203125,-39.1552734375,-15.5517578125
0.24563,-97.4365234375,-40.3271484375,-18.6767578125
0.2459201,-96.1181640625,-41.0595703125,-22.7294921875
0.2462149,-98.4619140625,-41.8408203125,-25.4638671875
0.2465284,-98.9501953125,-42.8662109375,-28.8818359375
0.2468235,-99.3408203125,-44.8681640625,-31.8115234375
0.2471142,-100.8056640625,-44.8193359375,-35.0830078125
0.2474129,-101.5380859375,-46.2841796875,-38.1103515625
0.2477065,-103.3935546875,-47.9443359375,-41.1865234375
0.2480353,-104.3212890625,-48.0908203125,-43.1396484375
0.2483337,-106.6650390625,-50.0927734375,-46.3134765625
0.2486395,-108.2275390625,-51.6064453125,-48.3154296875
0.2489298,-108.9111328125,-52.6806640625,-51.6357421875
0.2492198,-110.3271484375,-54.3408203125,-54.2724609375
0.2495095,-111.2060546875,-54.7314453125,-57.2509765625
0.2498163,-113.1103515625,-53.4130859375,-59.1552734375
0.25011,-114.4287109375,-52.8271484375,-55.1025390625
0.2504,-115.0634765625,-50.8251953125,-43.0419921875
0.2506915,-116.4306640625,-47.8466796875,-28.5400390625
0.2509857,-117.8466796875,-46.3818359375,-17.1142578125
0.2512744,-118.9208984375,-44.7216796875,-8.1298828125
0.2515655,-119.7021484375,-43.3056640625,-1.4404296875
0.2518715,-120.5810546875,-41.6943359375,2.4169921875
0.2521597,-121.3134765625,-39.9365234375,2.8076171875
0.2524486,-120.2880859375,-40.2783203125,-0.6103515625
0.2527345,-115.8447265625,-39.4970703125,-5.1513671875
0.253037,-110.4736328125,-39.0576171875,-8.1787109375
0.2533232,-107.9833984375,-39.6923828125,-10.2294921875
0.2536139,-104.1748046875,-40.5712890625,-12.5244140625
0.2539044,-100.9033203125,-41.2548828125,-15.8447265625
0.2542145,-98.4619140625,-41.4501953125,-18.3349609375
0.2545059,-96.8017578125,-42.3779296875,-21.5087890625
0.2548363,-96.5087890625,-41.8896484375,-24.6337890625
0.2551466,-98.7548828125,-42.4267578125,-27.6611328125
0.2554686,-98.9501953125,-42.6708984375,-31.7138671875
0.2557757,-99.9267578125,-44.1357421875,-34.5947265625
0.2560685,-101.4404296875,-44.1845703125,-37.3291015625
0.256372,-102.8076171875,-45.2587890625,-39.9169921875
0.2566606,-104.8095703125,-46.1865234375,-43.2861328125
0.2569512,-106.1279296875,-47.4072265625,-45.6787109375
0.2572412,-107.3486328125,-47.7001953125,-48.9013671875
0.257546,-108.8134765625,-48.2373046875,-52.1728515625
0.2578364,-110.5224609375,-49.7998046875,-54.9072265625
0.2581269,-111.8408203125,-51.1669921875,-57.3974609375
0.2584154,-112.9150390625,-49.9951171875,-60.2783203125
0.2587233,-113.3544921875,-48.8232421875,-57.9833984375
0.2590361,-114.8681640625,-47.4072265625,-48.3642578125
0.259333,-115.9423828125,-45.0634765625,-34.5947265625
0.2596242,-117.1630859375,-43.2568359375,-22.8271484375
0.2599277,-117.6025390625,-41.4990234375,-13.1103515625
0.2602554,-118.9697265625,-40.2294921875,-6.7138671875
0.2605839,-119.9951171875,-38.9111328125,-2.5146484375
0.2609133,-121.0205078125,-37.6904296875,-1.0498046875
0.2612126,-121.6064453125,-37.9833984375,-4.3212890625
0.2615018,-120.5322265625,-37.5927734375,-8.1298828125
0.2617918,-116.1865234375,-36.9580078125,-11.8896484375
0.2620934,-111.8896484375,-37.1044921875,-13.9892578125
0.2623828,-108.9599609375,-37.7880859375,-15.5029296875
0.2626688,-105.2978515625,-38.3740234375,-18.2373046875
0.2629565,-102.8076171875,-38.8623046875,-21.3134765625
0.2632541,-100.2685546875,-39.0576171875,-24.5361328125
0.2635411,-98.3154296875,-40.5712890625,-27.6611328125
0.2638296,-99.7314453125,-40.8642578125,-31.4697265625
0.2641204,-100.7080078125,-41.3037109375,-34.3505859375
0.2644297,-100.5615234375,-41.7431640625,-37.8173828125
0.2647162,-101.2939453125,-43.0126953125,-40.5029296875
0.2650053,-102.6123046875,-44.0869140625,-43.1884765625
0.2653036,-103.8818359375,-45.6494140625,-46.0693359375
0.2656026,-104.9560546875,-46.6748046875,-48.1689453125
0.2658883,-106.1767578125,-47.3583984375,-51.0498046875
0.2661767,-107.8857421875,-48.9697265625,-54.0283203125
0.2664699,-109.0087890625,-49.1162109375,-56.2744140625
0.2667654,-110.1318359375,-49.5556640625,-59.2529296875
0.2670529,-111.6943359375,-48.5791015625,-61.0595703125
0.2673413,-112.6220703125,-46.9677734375,-58.1787109375
0.2676456,-114.0380859375,-45.6982421875,-46.5087890625
0.2679333,-114.8681640625,-43.4521484375,-32.7392578125
0.2682225,-116.1865234375,-41.8896484375,-20.0439453125
0.2685132,-116.6748046875,-40.1806640625,-10.6201171875
0.268808,-117.8466796875,-37.6904296875,-4.5166015625
0.2690944,-119.2626953125,-35.9814453125,0.2685546875
0.2693828,-120.5322265625,-35.4443359375,1.2939453125
0.2696689,-120.9228515625,-35.8837890625,-1.4404296875
0.269968,-121.1669921875,-35.3466796875,-5.1025390625
0.2702564,-117.4072265625,-34.4677734375,-7.7392578125
0.2705443,-113.1591796875,-34.6630859375,-10.1806640625
0.2708335,-109.6435546875,-35.4443359375,-12.9638671875
0.2711318,-106.9580078125,-35.8837890625,-14.5263671875
0.2714203,-104.3212890625,-36.1767578125,-18.4326171875
0.2717088,-101.6845703125,-36.9091796875,-21.1181640625
0.2719973,-99.6337890625,-37.3974609375,-22.4853515625
0.2723103,-99.9267578125,-37.8857421875,-24.3408203125
0.2725959,-101.3427734375,-39.7412109375,-26.3427734375
0.2728843,-102.2705078125,-40.2294921875,-28.3447265625
0.2731749,-102.6611328125,-41.6943359375,-29.5654296875
0.2734766,-103.1005859375,-43.1591796875,-31.9091796875
0.2737647,-105.0048828125,-43.5498046875,-33.1298828125
0.2740539,-105.4931640625,-45.0634765625,-36.6943359375
0.2743509,-107.3486328125,-46.6748046875,-38.1103515625
0.2746407,-108.2275390625,-48.1884765625,-39.8193359375
0.2749292,-109.5947265625,-49.7998046875,-42.3095703125
0.2752197,-111.1572265625,-50.6298828125,-45.5810546875
0.2755219,-112.1337890625,-50.7275390625,-47.1923828125
0.2758122,-113.3544921875,-49.5556640625,-44.6533203125
0.2761019,-114.2333984375,-47.5048828125,-34.4482421875
0.2763889,-115.1123046875,-46.2841796875,-19.0673828125
0.2768237,-117.1630859375,-43.4521484375,-5.7861328125
0.2771663,-117.5048828125,-41.7431640625,4.2236328125
0.2774572,-118.3837890625,-40.0341796875,11.4501953125
0.2777606,-119.7998046875,-38.6181640625,17.0166015625
0.2780508,-121.1181640625,-37.3486328125,19.5556640625
0.278338,-122.3876953125,-36.8603515625,16.5283203125
0.2786266,-121.4111328125,-37.1044921875,12.9150390625
0.2789212,-118.7744140625,-37.2021484375,10.0830078125
0.279208,-113.1591796875,-37.1533203125,7.6904296875
0.2794992,-110.4248046875,-38.1298828125,5.3466796875
0.2797894,-107.1533203125,-37.6416015625,3.3935546875
0.2800919,-103.8330078125,-38.1787109375,0.4150390625
0.2803799,-101.1474609375,-38.9599609375,-2.9541015625
0.2806831,-98.9990234375,-39.6923828125,-5.3955078125
0.2810002,-98.2666015625,-40.9130859375,-8.6181640625
0.2812887,-100.0732421875,-41.5478515625,-11.7431640625
0.2815746,-100.4150390625,-42.7197265625,-15.2587890625
0.2818639,-100.4150390625,-43.7451171875,-17.7001953125
0.2821604,-101.3916015625,-45.0146484375,-21.1669921875
0.2824459,-102.6611328125,-45.5517578125,-23.4619140625
0.2827327,-104.2236328125,-47.1630859375,-25.7080078125
0.2830198,-105.2001953125,-48.8232421875,-28.2470703125
0.2833308,-105.8837890625,-50.1904296875,-31.1767578125
0.2836169,-107.6416015625,-51.0205078125,-33.1298828125
0.2839021,-108.7646484375,-51.9482421875,-36.7919921875
0.2842219,-110.4248046875,-51.4599609375,-38.6474609375
0.2845331,-111.4990234375,-50.4345703125,-37.7685546875
0.284853,-112.7197265625,-49.0185546875,-27.8076171875
0.2851441,-113.8427734375,-47.0654296875,-14.3310546875
0.2854379,-114.9658203125,-44.3798828125,-0.8544921875
0.2857422,-115.6494140625,-42.0849609375,8.4228515625
0.2860329,-117.3095703125,-40.7177734375,15.1123046875
0.2863259,-118.2861328125,-39.8876953125,19.2626953125
0.2866268,-119.8486328125,-38.2275390625,21.0205078125
0.2869154,-121.1181640625,-38.2275390625,18.2861328125
0.2872017,-121.9970703125,-37.9345703125,14.2822265625
0.2874886,-120.1416015625,-37.3486328125,11.2548828125
0.2878178,-115.0146484375,-37.2509765625,9.4970703125
0.2881059,-111.4501953125,-37.9345703125,7.7880859375
0.2883945,-108.4716796875,-38.7646484375,4.3701171875
0.2886999,-104.9560546875,-39.7900390625,1.3427734375
0.2889872,-101.8798828125,-40.7177734375,-1.7333984375
0.2892739,-99.2919921875,-40.3271484375,-5.2001953125
0.289565,-98.2177734375,-40.8642578125,-8.6669921875
0.2898678,-98.9501953125,-42.4755859375,-11.9873046875
0.2901554,-100.6103515625,-43.5986328125,-14.9658203125
0.2904418,-100.6591796875,-44.2333984375,-17.4560546875
0.2907473,-101.3427734375,-44.9658203125,-21.0693359375
0.2910542,-102.4658203125,-46.0888671875,-23.9990234375
0.2913454,-103.4423828125,-46.4794921875,-25.8056640625
0.291635,-104.7119140625,-48.6279296875,-28.5888671875
0.291934,-106.1279296875,-49.7509765625,-31.3232421875
0.2922243,-106.9580078125,-50.3857421875,-34.3994140625
0.2925133,-108.8134765625,-51.1669921875,-37.0849609375
0.2928017,-110.1806640625,-51.3134765625,-39.9658203125
0.293117,-110.7177734375,-49.7509765625,-39.6728515625
0.2934233,-111.9384765625,-47.6025390625,-30.6884765625
0.2937524,-113.1591796875,-46.1376953125,-15.9423828125
0.2940621,-113.9404296875,-43.7451171875,-3.3447265625
0.2943533,-115.2099609375,-41.1083984375,7.8857421875
0.2946415,-116.4306640625,-39.5947265625,15.3564453125
0.2949313,-116.8701171875,-38.0322265625,20.1904296875
0.2952271,-118.5791015625,-36.9091796875,22.9736328125
0.2955146,-119.2138671875,-36.3232421875,20.8251953125
0.3345086,-120.5322265625,-35.5419921875,16.6259765625
0.3537395,-119.0673828125,-35.4931640625,13.6962890625
0.4036744,-114.7705078125,-34.9560546875,11.6455078125
0.4126722,-110.7666015625,-35.3466796875,9.3994140625
0.4504092,-107.2509765625,-35.2490234375,6.5185546875
0.476402,-104.5166015625,-36.5185546875,4.4677734375
0.5124659,-102.0263671875,-37.6416015625,0.9521484375
0.5359449,-99.2919921875,-37.8857421875,-1.9775390625
0.5754431,-98.2177734375,-37.8369140625,-5.4931640625
0.5962847,-98.9501953125,-39.8388671875,-8.8134765625
0.6267628,-100.1220703125,-40.0341796875,-11.5478515625
0.6659546,-100.4150390625,-41.6455078125,-14.9169921875
0.6855393,-101.9775390625,-42.3291015625,-17.6025390625
0.7296506,-102.6611328125,-43.7451171875,-20.1904296875
0.7459431,-104.1748046875,-44.6240234375,-23.6083984375
0.7867679,-105.7861328125,-46.2353515625,-26.7333984375
0.8076664,-107.1533203125,-47.5537109375,-28.5888671875
0.8377775,-108.3251953125,-49.2626953125,-31.4697265625
0.8649913,-109.7412109375,-49.0185546875,-34.1552734375
0.9022446,-110.2783203125,-51.3623046875,-37.5244140625
0.9272415,-111.9873046875,-50.4345703125,-39.2822265625
0.9643558,-112.8662109375,-49.4091796875,-37.2802734375
0.9874524,-114.1845703125,-47.9931640625,-27.1240234375
1.0276007,-114.8193359375,-45.6494140625,-13.1103515625
1.0463984,-115.2587890625,-43.1591796875,-0.0732421875
1.0829955,-116.1865234375,-41.0595703125,9.8876953125
1.1051151,-116.9677734375,-39.0087890625,17.4072265625
1.1423202,-117.9931640625,-38.7158203125,22.7294921875
1.1673771,-118.8720703125,-37.5439453125,24.0478515625
1.2025377,-119.7998046875,-36.3232421875,21.1669921875
1.2301001,-119.2626953125,-37.0556640625,17.0654296875
1.2685323,-115.4541015625,-37.0556640625,14.2822265625
1.2860346,-110.9130859375,-37.2998046875,11.2060546875
1.3251612,-107.0556640625,-37.5439453125,8.9111328125
1.3481291,-104.2724609375,-38.5205078125,5.9814453125
1.3870368,-100.6103515625,-39.0087890625,3.3447265625
1.4092026,-98.0712890625,-41.4013671875,0.2685546875
1.4473048,-95.6298828125,-40.6689453125,-3.6865234375
1.4702918,-94.7509765625,-42.2314453125,-6.8115234375
1.508678,-96.0205078125,-43.3544921875,-10.7666015625
1.5350899,-96.7529296875,-44.8193359375,-13.3056640625
1.5622833,-96.3623046875,-45.7470703125,-17.0654296875
1.5896885,-97.8271484375,-46.9189453125,-19.9951171875
1.6318244,-98.9990234375,-48.5791015625,-23.5107421875
1.6538795,-99.5361328125,-49.3603515625,-26.0986328125
1.6822118,-101.5869140625,-51.2646484375,-29.1259765625
1.7146669,-102.9541015625,-51.7529296875,-31.5673828125
1.7425814,-104.4189453125,-53.6572265625,-34.8388671875
1.78096,-105.9326171875,-55.0244140625,-37.9638671875
1.8034351,-106.6162109375,-55.6103515625,-40.8447265625
1.8303713,-107.9833984375,-55.5126953125,-44.1650390625
1.8824693,-109.1552734375,-54.4384765625,-42.7490234375
1.8945284,-110.6201171875,-52.5341796875,-34.4482421875
1.9224236,-111.4501953125,-50.8251953125,-23.2666015625
1.9612567,-111.8896484375,-48.7255859375,-12.2314453125
1.983796,-112.4755859375,-46.7724609375,-3.2958984375
2.0122375,-114.2822265625,-44.3798828125,3.1982421875
2.0453141,-114.8681640625,-43.2568359375,8.5693359375
2.073616,-115.8447265625,-42.3291015625,10.1318359375
2.1015126,-116.5283203125,-42.3291015625,7.3486328125
2.1336444,-116.1865234375,-42.0361328125,3.3447265625
2.1641444,-111.8896484375,-42.2314453125,0.4638671875
2.1975629,-106.4208984375,-41.6943359375,-2.1240234375
2.2262258,-102.6611328125,-41.9384765625,-4.7607421875
2.2538939,-99.3408203125,-42.3291015625,-8.1787109375
2.285388,-96.0693359375,-42.8662109375,-11.8408203125
2.3135267,-93.4326171875,-43.8916015625,-14.4287109375
2.3441464,-90.1611328125,-45.0634765625,-18.2373046875
2.3749478,-90.2587890625,-45.7958984375,-21.8994140625
2.4058368,-91.5771484375,-46.3330078125,-25.6103515625
2.4387969,-92.1142578125,-48.0419921875,-28.3447265625
2.4665495,-92.7001953125,-48.3349609375,-32.0556640625
2.494122,-93.5791015625,-50.2392578125,-35.2294921875
2.5230729,-95.0439453125,-50.9716796875,-38.4033203125
2.5561335,-96.2646484375,-52.1435546875,-42.3095703125
2.5851987,-97.7783203125,-52.9736328125,-44.9951171875
2.6198059,-99.4873046875,-54.7802734375,-47.8271484375
2.6459448,-100.6591796875,-55.4150390625,-51.1474609375
2.6744904,-102.3193359375,-57.1240234375,-54.4189453125
2.7092386,-103.3447265625,-56.5869140625,-57.6416015625
2.7366163,-104.3701171875,-55.7080078125,-60.3759765625
2.7680952,-105.9326171875,-54.5849609375,-58.1787109375
2.7990027,-107.2998046875,-52.3876953125,-49.6337890625
2.8266643,-108.5205078125,-50.5322265625,-40.4541015625
2.8605601,-109.6435546875,-48.2861328125,-32.3486328125
2.8859195,-111.1572265625,-46.6259765625,-24.9755859375
2.9181535,-111.9384765625,-44.6728515625,-19.3603515625
2.9501658,-112.7685546875,-43.1103515625,-15.9423828125
2.9776156,-114.5263671875,-42.5244140625,-15.5517578125
3.0055095,-115.2099609375,-42.6220703125,-17.3095703125
3.0403352,-115.5029296875,-42.6708984375,-20.2880859375
3.0703387,-111.4990234375,-41.5966796875,-22.3388671875
3.1002148,-106.0302734375,-42.7197265625,-25.1708984375
3.1291287,-101.9287109375,-42.8173828125,-26.3916015625
3.1603287,-98.3642578125,-43.8427734375,-29.4677734375
3.186923,-95.0439453125,-45.0146484375,-32.2021484375
3.2203223,-91.7724609375,-45.6005859375,-34.6923828125
3.2505103,-89.4287109375,-46.3330078125,-38.5009765625
3.2819692,-88.4521484375,-47.5537109375,-41.7724609375
3.3126717,-89.8193359375,-49.0185546875,-44.7021484375
3.3364963,-90.3564453125,-49.1162109375,-47.8759765625
3.371027,-90.6005859375,-51.1669921875,-51.3427734375
3.4012415,-91.6748046875,-51.9482421875,-54.3701171875
3.4323699,-92.7978515625,-53.2666015625,-57.8369140625
3.460942,-94.4091796875,-54.4873046875,-60.4736328125
3.4901345,-95.5810546875,-56.0986328125,-63.8916015625
3.5236869,-96.9970703125,-57.4169921875,-66.8212890625
3.5513051,-98.3642578125,-58.3447265625,-69.5556640625
3.5845378,-99.8291015625,-59.0771484375,-72.4853515625
3.6117999,-100.6591796875,-59.2236328125,-75.4150390625
3.6419695,-103.0029296875,-58.7353515625,-76.9287109375
3.6710346,-103.6376953125,-56.4892578125,-72.7783203125
3.7024042,-104.9560546875,-55.2685546875,-63.5498046875
3.7396978,-106.3232421875,-53.2177734375,-54.4189453125
3.7628299,-107.1533203125,-50.4833984375,-46.1669921875
3.7937025,-108.1787109375,-48.5302734375,-38.9892578125
3.8217473,-109.8876953125,-47.5537109375,-33.4716796875
3.855532,-110.8154296875,-46.3330078125,-28.6865234375
3.8832533,-111.6943359375,-45.6982421875,-28.0517578125
3.919834,-113.5986328125,-45.7958984375,-30.2490234375
3.9440515,-113.3056640625,-44.7705078125,-33.6669921875
3.9808071,-109.5458984375,-45.3564453125,-34.8876953125
4.0025928,-103.4423828125,-45.8935546875,-36.8896484375
4.0364133,-99.1455078125,-46.8212890625,-38.5009765625
4.0647126,-96.4111328125,-47.3095703125,-40.3076171875
4.1023181,-92.6025390625,-48.3837890625,-42.9931640625
4.1242618,-89.9169921875,-49.2626953125,-46.2646484375
4.1738269,-88.1103515625,-50.6787109375,-48.9013671875
4.1851577,-87.8173828125,-52.3388671875,-51.5869140625
4.2232709,-88.6962890625,-53.6572265625,-54.4677734375
4.2472944,-89.0380859375,-54.7802734375,-57.4951171875
4.2759722,-89.1357421875,-57.2216796875,-59.6435546875
4.3060512,-90.8447265625,-58.1982421875,-62.8662109375
4.3434385,-92.3583984375,-59.2236328125,-65.8447265625
4.3655021,-93.4814453125,-61.0791015625,-68.6279296875
4.4017829,-95.0439453125,-62.0556640625,-71.3623046875
4.428111,-96.3134765625,-63.9599609375,-73.6083984375
4.4552989,-98.0224609375,-64.8876953125,-76.6845703125
4.4916921,-99.3408203125,-66.1572265625,-79.2236328125
4.5181403,-100.8544921875,-67.2314453125,-82.2021484375
4.5478337,-102.2705078125,-66.1083984375,-84.2041015625
4.5843998,-103.5888671875,-64.4970703125,-80.2001953125
4.608249,-104.8095703125,-63.0322265625,-71.8017578125
4.6467803,-106.3720703125,-61.8115234375,-62.1826171875
4.664738,-107.1533203125,-59.7607421875,-54.0771484375
4.7026225,-108.0810546875,-57.1240234375,-47.7294921875
4.7254394,-109.5947265625,-55.7080078125,-42.0166015625
4.7655754,-111.1083984375,-55.5126953125,-37.3779296875
4.7885617,-111.9384765625,-54.3408203125,-37.1826171875
4.8283948,-112.8173828125,-54.0966796875,-39.1845703125
4.8474829,-112.1337890625,-55.0732421875,-41.3330078125
4.8796869,-107.5927734375,-54.4873046875,-42.7490234375
4.9161563,-102.4169921875,-55.1708984375,-44.5556640625
4.9411996,-98.3642578125,-55.7568359375,-46.2646484375
4.9673465,-94.6533203125,-56.9287109375,-48.9990234375
5.0082467,-91.2841796875,-57.8564453125,-50.8056640625
5.0303881,-87.7685546875,-58.5888671875,-54.3212890625
5.0576775,-85.3759765625,-59.0771484375,-57.0068359375
5.0980063,-84.2041015625,-60.0048828125,-59.9365234375
5.119052,-86.4013671875,-61.2744140625,-63.0126953125
5.1483659,-87.1337890625,-61.7626953125,-65.4541015625
5.1884324,-86.9384765625,-62.9833984375,-68.6767578125
5.210107,-88.7451171875,-63.9111328125,-70.8251953125
5.2511047,-90.2587890625,-65.2294921875,-74.4873046875
5.2716519,-91.8701171875,-67.0361328125,-77.2705078125
5.3087298,-93.3837890625,-67.4267578125,-79.5654296875
5.3320193,-95.9228515625,-69.4287109375,-82.3974609375
5.3624052,-97.7783203125,-69.9658203125,-85.2294921875
5.3910066,-99.7802734375,-70.6005859375,-87.9638671875
5.4240776,-101.7333984375,-71.7236328125,-91.2353515625
5.4523698,-103.4912109375,-70.4052734375,-92.7001953125
5.4869822,-104.6630859375,-68.5009765625,-89.4287109375
5.5129458,-106.0791015625,-67.7197265625,-82.0068359375
5.542097,-106.8115234375,-64.8876953125,-73.6572265625
5.5789068,-108.5693359375,-61.6650390625,-65.9423828125
5.6011088,-109.9365234375,-60.2490234375,-59.8388671875
5.638141,-111.5966796875,-59.0771484375,-53.5888671875
5.6673639,-112.1826171875,-57.7099609375,-49.8779296875
5.6937063,-113.4521484375,-57.5634765625,-49.0966796875
5.7316621,-113.9892578125,-56.6357421875,-51.6845703125
5.7535623,-114.6240234375,-56.6845703125,-53.1005859375
5.7835059,-110.8642578125,-55.8056640625,-53.8330078125
5.8201761,-104.9072265625,-57.1240234375,-55.2978515625
5.8440584,-100.2197265625,-56.8798828125,-57.1533203125
5.87414,-96.7041015625,-58.1494140625,-60.3271484375
5.9112046,-92.8955078125,-58.6865234375,-62.4267578125
5.9364813,-89.8193359375,-59.5654296875,-64.6728515625
5.9736726,-87.2802734375,-60.2490234375,-67.5537109375
5.9962801,-86.3037109375,-61.2255859375,-71.0693359375
6.0308076,-88.0126953125,-62.4951171875,-73.7548828125
6.0537522,-88.9404296875,-62.6416015625,-76.3916015625
6.0907249,-89.0380859375,-64.3017578125,-79.6142578125
6.1140574,-89.2822265625,-65.1806640625,-82.3974609375
6.1514545,-91.0400390625,-66.0595703125,-85.1806640625
6.1745569,-91.8212890625,-66.8408203125,-88.0615234375
6.2119257,-94.1650390625,-68.7939453125,-90.3564453125
6.2358406,-95.2880859375,-70.1123046875,-93.6279296875
6.2686509,-96.7529296875,-70.2099609375,-96.7041015625
6.2978168,-98.7060546875,-71.0400390625,-100.0732421875
6.3292451,-99.6337890625,-72.0166015625,-101.9775390625
6.3571046,-101.4892578125,-70.4541015625,-103.8330078125
6.3948179,-102.6123046875,-68.4521484375,-99.9755859375
6.4197406,-103.9794921875,-67.4267578125,-91.7236328125
6.4456196,-105.6396484375,-64.7412109375,-82.2509765625
6.4839112,-106.8115234375,-62.8369140625,-74.9267578125
6.5074171,-107.8369140625,-60.2490234375,-67.6513671875
6.5361258,-109.3017578125,-58.7841796875,-61.3525390625
6.5727433,-110.2294921875,-57.7099609375,-56.7626953125
6.5998218,-111.5966796875,-56.2939453125,-54.6142578125
6.6379858,-112.5244140625,-56.7333984375,-56.5185546875
6.6591774,-113.4521484375,-56.0986328125,-58.1298828125
6.6891376,-110.7177734375,-55.1220703125,-59.5458984375
6.7223904,-105.0537109375,-56.9287109375,-60.3759765625
6.7514479,-100.8056640625,-56.3427734375,-62.6708984375
6.7796072,-97.2412109375,-57.2216796875,-64.0869140625
6.8166573,-94.0185546875,-57.9052734375,-67.3095703125
6.839632,-90.5517578125,-58.7841796875,-69.5068359375
6.8684386,-88.0615234375,-60.1513671875,-71.6552734375
6.9028345,-87.4267578125,-61.4697265625,-74.2919921875
6.9292888,-88.8427734375,-62.4951171875,-77.0751953125
6.9603251,-89.5751953125,-64.1064453125,-80.1513671875
6.9976125,-90.0634765625,-64.0087890625,-83.3251953125
7.0208941,-90.6005859375,-66.3525390625,-85.7666015625
7.0556255,-91.7724609375,-67.6708984375,-88.7939453125
7.0825648,-94.1162109375,-69.3798828125,-91.7724609375
7.1123709,-95.8740234375,-70.7470703125,-93.3837890625
7.1423353,-97.5830078125,-72.5048828125,-96.6064453125
7.1725427,-98.8525390625,-72.9443359375,-99.0966796875
7.2061152,-100.3662109375,-74.7998046875,-100.8544921875
7.235627,-102.0263671875,-75.1416015625,-104.0283203125
7.2637537,-103.1005859375,-74.7509765625,-105.3466796875
7.289503,-104.4189453125,-73.6279296875,-102.6611328125
7.3272712,-106.0302734375,-71.8701171875,-93.6767578125
7.3512804,-107.6904296875,-69.5751953125,-83.1787109375
7.3864672,-108.9111328125,-67.3779296875,-73.2177734375
7.4146312,-109.8876953125,-65.2783203125,-64.4287109375
7.4418408,-111.1083984375,-64.2529296875,-56.7626953125
7.473921,-112.2802734375,-62.8369140625,-49.9755859375
7.5026911,-113.7451171875,-62.1044921875,-46.7529296875
7.5367705,-114.0869140625,-61.5673828125,-47.3876953125
7.562889,-115.1611328125,-61.8115234375,-49.5361328125
7.5938891,-112.9638671875,-61.8603515625,-49.9755859375
7.625381,-107.2021484375,-61.9580078125,-50.9521484375
7.6548466,-102.6611328125,-62.4462890625,-51.6357421875
7.6846389,-99.0478515625,-62.9345703125,-53.1982421875
7.717485,-94.7021484375,-63.5205078125,-55.6396484375
7.7446768,-91.6748046875,-64.4970703125,-57.7880859375
7.7753659,-88.3544921875,-64.8876953125,-61.1572265625
7.8080307,-86.8896484375,-66.8408203125,-62.7197265625
7.8353541,-87.6220703125,-67.8173828125,-66.7236328125
7.8641109,-88.4521484375,-67.7197265625,-68.4814453125
7.8969364,-88.7451171875,-69.4287109375,-71.2646484375
7.9246728,-89.4775390625,-71.2841796875,-73.7060546875
7.9571839,-90.6982421875,-71.7236328125,-76.1474609375
7.9885129,-92.5048828125,-72.4560546875,-78.0029296875
8.0165777,-93.8232421875,-73.4326171875,-81.1279296875
8.0475383,-95.9228515625,-75.6787109375,-83.1787109375
8.0785499,-97.7294921875,-75.2880859375,-86.2060546875
8.1088087,-99.4873046875,-76.7529296875,-88.5498046875
8.1377724,-101.4404296875,-76.6552734375,-90.6005859375
8.1670825,-102.9052734375,-76.2158203125,-92.5048828125
8.1967854,-104.5654296875,-73.9208984375,-88.3544921875
8.2283392,-106.3720703125,-71.3818359375,-79.2724609375
8.2574394,-107.9833984375,-68.8916015625,-68.6279296875
8.2892848,-109.0087890625,-67.3291015625,-58.2275390625
8.31722,-110.5224609375,-65.1318359375,-49.2919921875
8.3479043,-111.7431640625,-62.9833984375,-42.6513671875
8.3790067,-113.6474609375,-62.8369140625,-37.5244140625
8.4087451,-114.2333984375,-60.8349609375,-35.6689453125
8.4405507,-115.9423828125,-60.9814453125,-38.5498046875
8.4695488,-116.5283203125,-60.6884765625,-40.4541015625
8.4997043,-115.6494140625,-60.1025390625,-43.1396484375
8.5267561,-110.4248046875,-59.6630859375,-44.8486328125
8.5593616,-105.2978515625,-60.8837890625,-46.6552734375
8.5875447,-101.8310546875,-61.4208984375,-49.1943359375
8.6215913,-97.9248046875,-61.8115234375,-52.1728515625
8.6489587,-94.3603515625,-62.6416015625,-55.0537109375
8.6771018,-91.9189453125,-63.5693359375,-57.8369140625
8.7141357,-89.0869140625,-64.3017578125,-60.6201171875
8.7412473,-89.5263671875,-64.8388671875,-62.9150390625
8.7718753,-91.0888671875,-66.0107421875,-66.2353515625
8.8005765,-91.5771484375,-66.4013671875,-68.5302734375
8.8394631,-91.9677734375,-68.5009765625,-70.5810546875
8.8645843,-93.1884765625,-68.2080078125,-73.8525390625
8.8906674,-94.6533203125,-69.5263671875,-75.9033203125
8.9218338,-96.0205078125,-70.6005859375,-78.1982421875
8.9530214,-97.6806640625,-72.4560546875,-79.8095703125
8.9880421,-98.7060546875,-73.1396484375,-82.6416015625
9.0105278,-100.3173828125,-73.1884765625,-85.6689453125
9.0495998,-101.4404296875,-72.7490234375,-88.0615234375
9.0713185,-102.9541015625,-72.3583984375,-88.5498046875
9.1208164,-104.2236328125,-70.6982421875,-83.4228515625
9.1421424,-105.2978515625,-68.0126953125,-71.4599609375
9.1646102,-106.5673828125,-66.1083984375,-58.6181640625
9.1950165,-107.4462890625,-62.7392578125,-48.0712890625
9.2229152,-108.4716796875,-61.2255859375,-39.0380859375
9.2534559,-109.7412109375,-59.2236328125,-31.7138671875
9.2865375,-110.9130859375,-57.7587890625,-28.0517578125
9.3114124,-112.2314453125,-56.3427734375,-27.7099609375
9.3651039,-113.0615234375,-56.2939453125,-30.1025390625
9.3741138,-114.0869140625,-55.8056640625,-33.1298828125
9.4117835,-113.6474609375,-55.4638671875,-35.1806640625
9.433648,-108.6181640625,-56.4892578125,-38.3544921875
9.4645947,-103.4912109375,-56.1474609375,-39.6240234375
9.4937687,-100.2685546875,-56.9287109375,-42.3583984375
9.5254417,-96.7529296875,-57.2705078125,-45.4833984375
9.5670348,-93.1396484375,-57.6123046875,-48.6083984375
9.5839601,-90.9912109375,-57.9052734375,-51.5380859375
9.6161025,-88.6962890625,-59.1259765625,-54.7607421875
9.6455342,-88.9404296875,-60.5908203125,-57.6416015625
9.6776088,-90.1123046875,-60.9814453125,-60.6689453125
9.7067613,-90.5517578125,-61.4208984375,-63.5498046875
9.736562,-91.3330078125,-63.1298828125,-66.2353515625
9.7667802,-91.7236328125,-63.3740234375,-69.2626953125
9.8038932,-94.0185546875,-65.1806640625,-71.6064453125
9.8247101,-96.1181640625,-66.3037109375,-73.7060546875
9.8605313,-97.5830078125,-68.4033203125,-76.3427734375
9.8894476,-99.4384765625,-68.3544921875,-79.4189453125
9.9176288,-101.0009765625,-70.1123046875,-82.1044921875
9.9654198,-102.5634765625,-70.5029296875,-84.3505859375
9.9773573,-103.9306640625,-69.0869140625,-83.8623046875
10.0102663,-105.3955078125,-66.9384765625,-77.5634765625
10.0400248,-106.6162109375,-65.2783203125,-64.0869140625
10.068406,-107.8369140625,-63.2763671875,-51.2939453125
10.0993538,-108.9599609375,-60.8837890625,-39.2822265625
10.1278604,-109.4482421875,-59.0771484375,-30.3955078125
10.1671262,-110.9619140625,-57.7587890625,-23.1689453125
10.2050416,-112.6708984375,-56.6357421875,-19.1650390625
10.2199488,-113.4033203125,-56.6845703125,-18.8720703125
10.2506657,-115.0146484375,-56.0009765625,-23.1201171875
10.2787404,-115.2587890625,-55.3662109375,-26.1474609375
10.3077757,-114.2822265625,-56.0498046875,-28.1982421875
10.3437906,-109.1064453125,-56.4892578125,-29.8583984375
10.3694049,-104.1259765625,-56.1474609375,-32.8369140625
10.4055112,-99.7802734375,-57.7587890625,-35.4736328125
10.4310813,-95.8740234375,-58.5888671875,-38.3544921875
10.4688191,-92.7001953125,-58.4912109375,-41.4306640625
10.4877306,-89.9658203125,-59.4189453125,-44.4091796875
10.5238534,-87.5732421875,-60.7861328125,-47.6806640625
10.550982,-87.6220703125,-62.0068359375,-49.8291015625
10.584697,-88.7451171875,-63.0322265625,-52.8076171875
10.61335,-89.8681640625,-64.6435546875,-55.7373046875
10.6402711,-89.8681640625,-65.6201171875,-58.1787109375
10.6764114,-91.0400390625,-66.6455078125,-61.3037109375
10.7025495,-92.4560546875,-67.0361328125,-63.5009765625
10.7325972,-93.9208984375,-69.0869140625,-65.7958984375
10.7640079,-95.8740234375,-70.6982421875,-67.9931640625
10.7925929,-97.1923828125,-71.4306640625,-70.5322265625
10.8294882,-99.5361328125,-72.4560546875,-73.3154296875
10.8547916,-100.5126953125,-72.7001953125,-76.0986328125
10.8813973,-101.1962890625,-70.8935546875,-74.9267578125
10.919108,-103.1005859375,-68.8427734375,-65.3076171875
10.9443398,-104.4189453125,-67.1826171875,-52.1240234375
10.9719167,-105.7373046875,-65.1806640625,-39.4287109375
11.004271,-106.7626953125,-63.2763671875,-28.8818359375
11.0423998,-107.4462890625,-60.6396484375,-21.2158203125
11.0657411,-109.3994140625,-59.5166015625,-16.3818359375
11.0960596,-109.9853515625,-58.1494140625,-13.7451171875
11.1228751,-111.2060546875,-57.7099609375,-16.4306640625
11.1592328,-112.8173828125,-56.7333984375,-20.0927734375
11.1861648,-114.1845703125,-57.0263671875,-23.5107421875
11.2162623,-112.7685546875,-56.0498046875,-25.2685546875
11.2467047,-108.4716796875,-57.2216796875,-27.5146484375
11.2761773,-103.0517578125,-57.0263671875,-30.0537109375
11.3035856,-100.0244140625,-57.5146484375,-32.8857421875
11.3362242,-96.4111328125,-58.3935546875,-36.4501953125
11.3657315,-92.0654296875,-58.2470703125,-38.7451171875
11.3977692,-89.8681640625,-59.0771484375,-42.5048828125
11.4276771,-88.0615234375,-60.6396484375,-44.7509765625
11.454242,-87.5244140625,-60.5419921875,-48.3154296875
11.4907997,-89.1357421875,-61.7626953125,-50.9033203125
11.5165276,-88.9892578125,-63.2763671875,-53.3935546875
11.5460113,-89.9658203125,-63.9111328125,-56.4208984375
11.5822022,-90.5517578125,-64.5947265625,-58.7646484375
11.6073377,-92.3583984375,-66.6455078125,-61.4501953125
11.6373227,-93.7255859375,-66.8896484375,-63.7939453125
11.6696555,-95.2880859375,-68.1591796875,-66.3330078125
11.6977735,-97.1923828125,-68.9892578125,-69.3115234375
11.7260749,-98.8525390625,-69.1357421875,-72.0947265625
11.7594079,-99.5849609375,-68.3056640625,-72.5830078125
11.7880624,-101.5380859375,-65.3759765625,-66.7236328125
11.8181748,-102.9052734375,-63.8134765625,-53.3447265625
11.8488938,-104.1748046875,-61.4697265625,-40.3564453125
11.8779912,-105.6396484375,-59.1748046875,-29.5166015625
11.9105153,-106.6162109375,-56.7822265625,-21.6552734375
11.9382337,-107.8857421875,-54.7314453125,-16.3330078125
11.9751955,-108.6669921875,-53.7548828125,-12.7197265625
11.9993708,-109.4970703125,-52.1923828125,-14.2822265625
12.0283402,-111.3037109375,-52.7294921875,-17.6513671875
12.0593432,-111.7919921875,-51.7041015625,-21.0205078125
12.0907556,-112.7197265625,-52.1923828125,-24.3896484375
12.1182447,-112.7197265625,-52.6318359375,-25.9521484375
12.1541859,-107.4462890625,-52.2900390625,-28.3935546875
12.1791045,-102.2216796875,-52.3876953125,-32.0068359375
12.2093509,-99.1455078125,-53.6572265625,-34.7412109375
12.2459767,-95.0439453125,-53.6572265625,-37.6220703125
12.2715075,-92.4560546875,-55.0244140625,-40.6005859375
12.3026234,-89.0869140625,-55.4638671875,-44.1162109375
12.3311448,-86.5478515625,-55.8056640625,-47.2412109375
12.3594372,-87.2802734375,-57.1728515625,-50.2197265625
12.3890927,-88.5498046875,-58.1982421875,-52.2216796875
12.4226176,-88.8427734375,-59.6142578125,-55.8837890625
12.4517161,-88.9404296875,-60.3955078125,-59.0087890625
12.5014559,-90.0634765625,-61.7138671875,-60.3759765625
12.5238185,-91.5771484375,-63.0322265625,-63.2568359375
12.5420929,-93.0419921875,-64.2041015625,-65.5517578125
12.5730469,-94.5068359375,-64.4970703125,-68.8232421875
12.6044064,-96.4599609375,-65.2294921875,-71.7041015625
12.6339089,-97.3388671875,-65.3759765625,-73.1689453125
12.6626333,-99.4384765625,-63.2275390625,-70.7763671875
12.6934188,-100.9521484375,-60.3466796875,-59.3994140625
12.7259546,-101.0986328125,-58.9306640625,-44.6044921875
12.7801527,-103.0517578125,-56.1474609375,-31.8603515625
12.7809347,-104.5166015625,-54.6337890625,-21.4111328125
12.8150267,-105.0537109375,-52.6806640625,-14.6728515625
12.8448567,-107.2021484375,-51.6064453125,-9.3505859375
12.8713375,-108.1787109375,-50.3857421875,-7.5439453125
12.9049891,-109.7412109375,-50.1416015625,-10.4736328125
12.9342122,-110.3759765625,-49.8486328125,-14.8193359375
12.9861796,-111.4990234375,-49.8974609375,-17.9931640625
13.0051442,-111.8408203125,-50.5322265625,-20.7275390625
13.023806,-109.3505859375,-50.5322265625,-22.5341796875
13.055668,-103.3447265625,-52.1435546875,-25.1220703125
13.0854275,-99.8779296875,-52.8759765625,-28.2470703125
13.1150764,-95.9228515625,-53.3642578125,-30.3466796875
13.1630955,-92.0166015625,-55.0244140625,-34.3505859375
13.1840194,-89.6240234375,-55.6591796875,-36.6943359375
13.2086487,-86.8408203125,-56.5380859375,-39.1845703125
13.2366317,-84.9853515625,-57.8564453125,-42.9931640625
13.2829479,-86.8896484375,-58.6376953125,-44.9951171875
13.3029577,-87.7197265625,-60.7373046875,-48.6572265625
13.3259634,-88.3056640625,-61.1767578125,-51.2451171875
13.3570264,-88.9892578125,-62.8369140625,-54.1259765625
13.3891558,-90.0634765625,-63.5205078125,-56.3720703125
13.4170809,-91.4794921875,-65.8154296875,-58.5693359375
13.4440213,-93.7255859375,-67.0361328125,-61.4501953125
13.4948094,-95.1416015625,-68.1103515625,-64.2333984375
13.5152654,-96.2158203125,-68.2568359375,-66.6748046875
13.5396571,-97.8271484375,-67.8173828125,-69.1162109375
13.5665739,-99.4873046875,-66.9384765625,-65.3076171875
13.5989478,-100.6103515625,-64.9365234375,-53.3447265625
13.6317745,-102.0751953125,-61.9091796875,-38.7451171875
13.6576337,-103.0517578125,-60.4443359375,-25.8056640625
13.7064664,-104.6142578125,-58.0517578125,-15.7470703125
13.718983,-105.7861328125,-55.6591796875,-9.3017578125
13.7502487,-107.2021484375,-55.1708984375,-4.3701171875
13.7802503,-108.7158203125,-53.6572265625,-3.2958984375
13.8110786,-110.2783203125,-53.6083984375,-7.4951171875
13.8384958,-110.8154296875,-53.7548828125,-11.2060546875
13.8727608,-111.4990234375,-53.3154296875,-14.6728515625
13.8987639,-112.0849609375,-54.1455078125,-16.1376953125
13.9307645,-107.9345703125,-54.2919921875,-18.7744140625
13.9610811,-102.5634765625,-56.0498046875,-21.0693359375
14.0070668,-98.6083984375,-56.2451171875,-24.4873046875
14.0282346,-94.9462890625,-56.4892578125,-27.8564453125
14.0702849,-91.0888671875,-57.9541015625,-30.8349609375
14.0906008,-87.6220703125,-57.8564453125,-33.5205078125
14.1143153,-84.8876953125,-59.4677734375,-36.8408203125
14.1411264,-84.3017578125,-60.5908203125,-40.0146484375
14.169646,-86.0595703125,-61.6162109375,-42.0654296875
14.206087,-87.2802734375,-63.1298828125,-45.4833984375
14.2339788,-87.3291015625,-64.4970703125,-47.3388671875
14.2618203,-88.9404296875,-65.6689453125,-50.8544921875
14.2979551,-89.8193359375,-65.4248046875,-53.1494140625
14.3388597,-91.8212890625,-67.7685546875,-55.5908203125
14.3591573,-93.1396484375,-68.2080078125,-57.7880859375
14.3994478,-94.4580078125,-70.0634765625,-60.5712890625
14.4196912,-96.3134765625,-69.8193359375,-62.6708984375
14.4450047,-97.9736328125,-67.9638671875,-63.8427734375
14.4734945,-99.6337890625,-66.2060546875,-57.8857421875
14.5028614,-100.5615234375,-64.3505859375,-45.0927734375
14.5389139,-101.7333984375,-61.6162109375,-30.4931640625
14.5651676,-103.1005859375,-59.4189453125,-19.8486328125
14.5935094,-104.0283203125,-56.9287109375,-11.7431640625
14.6428133,-105.0537109375,-55.5126953125,-6.2255859375
14.6537685,-105.8837890625,-54.9755859375,-3.1982421875
14.6837675,-106.7138671875,-53.2666015625,-4.5654296875
14.7152248,-107.8857421875,-52.9736328125,-8.8623046875
14.7445853,-109.1064453125,-52.5830078125,-12.7197265625
14.7965387,-110.2783203125,-52.8759765625,-15.1611328125
14.8046216,-109.8876953125,-53.4130859375,-17.1142578125
14.8339122,-105.8349609375,-53.3642578125,-19.0185546875
14.8890163,-100.4638671875,-53.9990234375,-21.6552734375
14.8939715,-96.2158203125,-54.6337890625,-25.5615234375
14.945038,-92.3583984375,-56.0009765625,-28.4423828125
14.957237,-88.9404296875,-57.0263671875,-31.6162109375
14.9844847,-85.3759765625,-57.7587890625,-35.3271484375
15.0155145,-82.8857421875,-58.0517578125,-38.0126953125
15.0503415,-81.6162109375,-58.6376953125,-40.9912109375
15.0756157,-83.0810546875,-60.2490234375,-43.9697265625
15.1063793,-83.3251953125,-61.3232421875,-47.1923828125
15.1370203,-83.3740234375,-61.5673828125,-49.7314453125
15.1649914,-84.6923828125,-63.0810546875,-52.4658203125
15.1982057,-85.6201171875,-64.4970703125,-54.5654296875
15.2281362,-86.6455078125,-66.1572265625,-58.1787109375
15.2611854,-88.6474609375,-66.7431640625,-60.3759765625
15.2894556,-89.7216796875,-67.0361328125,-63.4033203125
15.3187311,-91.0400390625,-66.8408203125,-65.5517578125
15.3494182,-92.5537109375,-64.5458984375,-63.3056640625
15.3763148,-94.0185546875,-62.6904296875,-52.7099609375
15.4092968,-95.3857421875,-60.1025390625,-37.8173828125
15.4401757,-96.0205078125,-57.7587890625,-25.5126953125
15.4707359,-96.8505859375,-55.1220703125,-15.5517578125
15.4972804,-98.6572265625,-51.9482421875,-8.7158203125
15.5313651,-99.3408203125,-51.2158203125,-4.2236328125
15.5603509,-100.8056640625,-50.0439453125,-2.5634765625
15.5914783,-101.8798828125,-48.4326171875,-6.0791015625
15.6218975,-103.6865234375,-48.5791015625,-10.5224609375
15.649409,-104.1259765625,-48.2373046875,-13.7939453125
15.6832233,-105.8837890625,-47.9443359375,-16.4306640625
15.7099227,-105.1513671875,-48.4326171875,-19.8486328125
15.7387881,-100.8056640625,-49.0185546875,-22.2900390625
15.7768317,-95.9228515625,-49.7509765625,-26.4404296875
15.7995547,-91.8212890625,-50.8251953125,-29.7607421875
15.8282502,-88.7451171875,-50.8740234375,-33.5205078125
15.8643241,-85.6689453125,-51.8017578125,-36.7919921875
15.8906706,-82.7392578125,-52.4365234375,-40.4052734375
15.9240877,-80.6884765625,-53.6572265625,-44.1650390625
15.9519927,-80.9814453125,-55.7568359375,-47.9736328125
15.9800428,-82.4462890625,-56.3916015625,-51.3427734375
16.0142834,-82.7392578125,-57.0751953125,-55.1513671875
16.0435415,-83.7158203125,-58.3935546875,-58.1787109375
16.0686474,-84.3505859375,-60.5419921875,-61.6943359375
16.1048772,-85.7666015625,-62.0556640625,-65.4541015625
16.1313806,-87.4755859375,-63.6181640625,-68.7255859375
16.1651169,-89.6728515625,-64.8388671875,-72.5830078125
16.1942228,-91.1376953125,-64.3994140625,-75.9033203125
16.2218544,-92.8955078125,-64.4482421875,-78.7353515625
16.2551433,-94.7021484375,-62.0068359375,-75.3662109375
16.2834339,-96.5087890625,-60.1513671875,-66.8701171875
16.3132562,-97.4853515625,-57.8076171875,-56.1279296875
16.3458111,-98.7060546875,-55.6103515625,-46.6552734375
16.3753557,-99.6826171875,-53.2177734375,-38.7451171875
16.4034378,-101.3427734375,-50.9228515625,-32.1533203125
16.4354404,-102.0751953125,-49.9951171875,-27.8076171875
16.4639411,-103.0517578125,-48.1884765625,-26.8798828125
16.4962818,-104.4677734375,-48.9697265625,-29.1259765625
16.5248856,-105.7373046875,-48.2861328125,-33.1298828125
16.5531727,-107.1044921875,-48.7255859375,-36.3037109375
16.5876621,-107.4462890625,-48.6767578125,-39.0380859375
16.6159869,-105.7861328125,-49.3115234375,-42.5537109375
16.6438543,-100.2197265625,-49.5068359375,-45.8740234375
16.6771313,-95.1904296875,-51.7529296875,-49.0966796875
16.7052397,-92.1630859375,-51.4111328125,-53.1494140625
16.7354222,-87.8662109375,-52.7294921875,-57.4462890625
16.7668648,-84.1552734375,-53.9501953125,-61.4013671875
16.7948223,-81.6162109375,-56.1962890625,-65.8935546875
16.8280073,-79.2724609375,-57.1240234375,-69.7509765625
16.8592105,-80.1513671875,-58.0029296875,-73.7060546875
16.884818,-81.1767578125,-59.0283203125,-77.7587890625
16.9194762,-81.6162109375,-60.1025390625,-81.5673828125
16.9492248,-81.9580078125,-62.4462890625,-85.4736328125
16.9787602,-83.2763671875,-63.5693359375,-88.6962890625
17.0087463,-84.9365234375,-65.2294921875,-92.3095703125
17.0385489,-86.4990234375,-66.3037109375,-96.0205078125
17.0664962,-88.2080078125,-67.0849609375,-99.4384765625
17.1002874,-89.9169921875,-67.7685546875,-103.3935546875
17.1252375,-91.8212890625,-66.0107421875,-105.7861328125
17.1613301,-93.8232421875,-64.4970703125,-104.6142578125
17.1881454,-95.4345703125,-62.8369140625,-99.1455078125
17.2151775,-96.8017578125,-59.9072265625,-92.1142578125
17.2491589,-97.8759765625,-57.6611328125,-86.0107421875
17.2798935,-99.5849609375,-54.6337890625,-80.5908203125
17.3114311,-100.8056640625,-53.1689453125,-77.0263671875
17.3405503,-102.1240234375,-51.1669921875,-73.3154296875
17.3699813,-103.7353515625,-50.0439453125,-72.8271484375
17.3963607,-104.7119140625,-50.0439453125,-75.2197265625
17.431369,-105.9326171875,-49.6044921875,-77.8564453125
17.4567974,-106.9091796875,-48.8720703125,-79.8095703125
17.5101951,-107.5927734375,-49.4091796875,-81.3720703125
17.5314781,-105.1025390625,-50.0439453125,-83.5205078125
17.5496141,-99.6826171875,-50.6298828125,-86.1572265625
17.5994319,-94.7998046875,-51.8994140625,-89.4287109375
17.6193478,-90.6005859375,-52.0947265625,-91.5771484375
17.6557374,-87.2314453125,-52.7783203125,-94.8486328125
17.6788081,-83.4228515625,-53.6572265625,-98.3154296875
17.7013602,-80.7373046875,-55.2685546875,-101.2939453125
17.7320832,-79.0771484375,-56.0009765625,-104.5654296875
17.7788952,-79.3701171875,-56.6357421875,-107.6416015625
17.8003279,-80.5419921875,-57.2705078125,-110.8154296875
17.8364817,-80.8837890625,-59.1748046875,-114.3310546875
17.8589991,-82.0556640625,-61.3232421875,-117.3095703125
17.8805653,-83.5205078125,-61.5185546875,-119.8486328125
17.912689,-85.4248046875,-63.0322265625,-122.9736328125
17.9421184,-86.4501953125,-64.7412109375,-126.2451171875
17.9901755,-88.5986328125,-64.9853515625,-128.3935546875
18.010057,-89.9658203125,-65.9130859375,-131.4697265625
18.0339201,-91.3818359375,-65.2783203125,-134.2041015625
18.0791687,-92.9443359375,-63.0810546875,-134.9365234375
18.1015723,-94.3603515625,-61.0302734375,-130.8837890625
18.1231899,-95.1416015625,-58.6865234375,-125.2685546875
18.1706976,-96.6064453125,-56.1474609375,-119.7021484375
18.1922863,-97.9248046875,-53.2177734375,-115.8935546875
18.2294293,-98.5107421875,-51.0205078125,-111.3525390625
18.2551633,-99.4384765625,-49.0673828125,-107.8857421875
18.2932496,-100.8056640625,-47.7978515625,-106.5673828125
18.3136281,-102.4658203125,-47.1630859375,-106.8115234375
18.3330246,-103.2958984375,-46.5771484375,-108.4228515625
18.3631975,-103.9794921875,-46.1376953125,-110.0341796875
18.3975528,-104.9560546875,-46.2841796875,-111.0595703125
18.4385073,-103.2958984375,-46.3330078125,-113.0615234375
18.458434,-98.3154296875,-46.7236328125,-114.2333984375
18.4867036,-93.5302734375,-47.4072265625,-116.1376953125
18.5153679,-88.9404296875,-48.5302734375,-118.7255859375
18.5647036,-85.1806640625,-48.8232421875,-120.6298828125
18.574803,-81.4697265625,-50.7763671875,-123.1201171875
18.6032124,-78.1982421875,-51.5576171875,-125.2197265625
18.6624635,-76.4404296875,-52.1435546875,-128.0517578125
18.6929871,-76.3427734375,-53.2177734375,-130.8837890625
18.6938714,-78.0517578125,-53.9013671875,-132.7880859375
18.7416294,-78.3447265625,-55.8056640625,-134.9853515625
18.7638347,-78.4912109375,-56.8798828125,-137.0849609375
18.7858,-80.2490234375,-58.5400390625,-139.6728515625
18.8375152,-81.7138671875,-59.2236328125,-142.0654296875
18.8563819,-82.9345703125,-60.4443359375,-145.1904296875
18.8940509,-84.8876953125,-61.5185546875,-146.7041015625
18.9140024,-86.3037109375,-62.7392578125,-149.9267578125
18.9544133,-87.6708984375,-62.7392578125,-152.5146484375
18.9745601,-89.6240234375,-61.6162109375,-153.2470703125
18.9999548,-91.0888671875,-60.0537109375,-151.5380859375
19.0308288,-92.8466796875,-57.4658203125,-146.3134765625
19.0748315,-94.2626953125,-54.3896484375,-140.8935546875
19.095354,-95.5810546875,-53.1201171875,-135.6201171875
19.1186971,-96.8994140625,-50.9716796875,-130.2001953125
19.1513244,-98.6083984375,-49.4091796875,-126.0986328125
19.1797833,-99.8291015625,-48.3837890625,-121.9970703125
19.2133459,-101.1962890625,-47.6025390625,-120.3369140625
19.256096,-102.4169921875,-47.4560546875,-120.2880859375
19.2747795,-104.3212890625,-47.5048828125,-121.5576171875
19.3020027,-104.9560546875,-47.6025390625,-121.3134765625
19.329729,-105.0537109375,-48.7255859375,-122.1435546875
19.3767212,-100.5615234375,-48.2373046875,-122.0947265625
19.3968802,-95.0439453125,-50.2880859375,-122.5341796875
19.4341698,-90.8935546875,-50.7275390625,-124.2919921875
19.4562315,-87.0361328125,-52.1435546875,-125.1708984375
19.4992217,-83.3251953125,-52.7783203125,-126.6845703125
19.5212621,-79.7119140625,-53.9013671875,-129.2236328125
19.5594397,-76.7822265625,-55.4150390625,-130.1513671875
19.5715972,-75.3662109375,-57.5634765625,-132.1533203125
19.6007385,-76.3916015625,-58.8818359375,-133.1787109375
19.6327258,-77.6123046875,-60.3466796875,-135.6689453125
19.6803542,-77.1728515625,-62.0068359375,-137.9150390625
19.7012597,-78.4423828125,-63.3740234375,-139.3310546875
19.7371233,-79.7119140625,-64.7412109375,-141.4794921875
19.7581323,-81.1279296875,-66.4990234375,-142.7001953125
19.803274,-82.7392578125,-68.5498046875,-144.8974609375
19.814165,-84.7412109375,-69.7705078125,-146.6552734375
19.8607849,-85.6201171875,-69.8681640625,-148.5595703125
19.8808881,-87.7197265625,-69.5263671875,-151.0986328125
19.9198507,-89.4287109375,-68.6962890625,-150.4150390625
19.94076,-91.6748046875,-67.1337890625,-145.5322265625
19.9795291,-92.5537109375,-64.9853515625,-139.9658203125
19.9998325,-94.2138671875,-61.7626953125,-133.4716796875
20.0507487,-95.5810546875,-59.1748046875,-127.6123046875
20.0700527,-96.4111328125,-57.4658203125,-122.0947265625
20.0844836,-98.5107421875,-57.0751953125,-116.8701171875
20.117422,-98.9501953125,-56.1474609375,-113.4033203125
20.1460778,-99.7802734375,-55.7080078125,-112.0849609375
20.1794961,-101.6357421875,-55.5615234375,-112.3779296875
20.2226608,-102.7587890625,-54.3408203125,-113.0126953125
20.234521,-103.1005859375,-54.9755859375,-112.8173828125
20.2645436,-102.5146484375,-55.8056640625,-112.7685546875
20.314913,-97.6318359375,-57.0263671875,-114.3798828125
20.3269919,-92.5048828125,-57.6123046875,-115.5029296875
20.3570686,-87.9638671875,-57.8564453125,-116.7236328125
20.4027851,-84.3994140625,-59.2236328125,-117.7978515625
20.4152889,-80.3466796875,-59.5166015625,-119.4580078125
20.4500131,-77.4169921875,-60.1513671875,-120.7763671875
20.493348,-75.0244140625,-61.7138671875,-122.0947265625
20.5119687,-74.2919921875,-62.9345703125,-123.6572265625
20.5383642,-75.6591796875,-64.5458984375,-126.0986328125
20.568761,-76.5380859375,-64.8388671875,-127.4169921875
20.5989356,-76.4404296875,-66.1083984375,-129.3701171875
20.6301697,-77.8076171875,-67.4267578125,-130.5908203125
20.6563015,-79.7607421875,-68.6962890625,-133.1787109375
20.6905378,-81.3720703125,-69.8681640625,-134.5458984375
20.7167005,-83.2763671875,-71.4794921875,-136.3037109375
20.7686129,-85.3271484375,-71.8701171875,-138.5498046875
20.7798047,-86.6943359375,-70.4052734375,-140.0634765625
20.809049,-88.8427734375,-69.6728515625,-140.8447265625
20.8375864,-90.1123046875,-68.2568359375,-136.0595703125
20.8712052,-91.3818359375,-65.1806640625,-129.6142578125
20.9005418,-92.7978515625,-63.0810546875,-122.2412109375
20.931611,-94.6533203125,-60.6396484375,-115.0146484375
20.9620474,-95.5322265625,-58.3935546875,-109.5947265625
20.9887426,-96.5087890625,-57.2705078125,-104.2236328125
21.02075,-98.4619140625,-56.2939453125,-100.7080078125
21.0518814,-99.2919921875,-55.2197265625,-99.3896484375
21.0834795,-101.2451171875,-55.2685546875,-100.4150390625
21.1126911,-102.5146484375,-54.9755859375,-101.3916015625
21.1405295,-103.5400390625,-54.7802734375,-101.6357421875
21.1706553,-104.3701171875,-55.6103515625,-102.4169921875
21.2015082,-102.1728515625,-56.4892578125,-103.3935546875
21.2322759,-97.0947265625,-57.9052734375,-104.5654296875
21.2643843,-92.3583984375,-57.4169921875,-106.7138671875
21.2925657,-88.3056640625,-58.7841796875,-107.7392578125
21.3199934,-85.4248046875,-59.9560546875,-109.5947265625
21.3528925,-80.6396484375,-60.1513671875,-111.7431640625
21.3821034,-77.9541015625,-61.0791015625,-114.3798828125
21.4142097,-75.7080078125,-63.2763671875,-116.3818359375
21.4453644,-76.4892578125,-64.0087890625,-118.1884765625
21.4729936,-77.9541015625,-65.5712890625,-120.3369140625
21.5036692,-77.4658203125,-67.1337890625,-122.2412109375
21.535092,-78.1005859375,-68.4033203125,-123.5107421875
21.5630628,-79.3701171875,-68.8916015625,-126.5380859375
21.5963709,-80.2490234375,-71.4794921875,-128.7841796875
21.6248254,-81.7138671875,-72.2119140625,-131.0302734375
21.6520401,-83.5205078125,-73.2861328125,-132.9833984375
21.6861665,-84.7412109375,-72.5048828125,-135.0830078125
21.7143242,-86.3037109375,-70.1611328125,-135.0830078125
21.7460827,-87.7685546875,-68.2568359375,-129.8583984375
21.7749712,-88.8916015625,-66.5478515625,-123.1689453125
21.8051661,-91.0400390625,-63.7646484375,-114.8681640625
21.8379934,-92.0166015625,-61.1767578125,-107.8857421875
21.8649183,-93.3837890625,-58.7353515625,-101.3427734375
21.8933962,-95.4345703125,-58.0029296875,-96.9482421875
21.9278126,-96.0693359375,-56.7822265625,-92.4560546875
21.9568134,-97.2900390625,-56.4404296875,-92.1142578125
21.984519,-98.5595703125,-56.1962890625,-93.1396484375
22.017921,-100.1220703125,-55.1708984375,-94.8486328125
22.0460032,-101.9287109375,-55.9521484375,-95.3857421875
22.0773677,-102.8564453125,-56.6845703125,-95.7763671875
22.1068459,-102.7587890625,-57.9541015625,-97.9248046875
22.135096,-97.3388671875,-58.5400390625,-99.0478515625
22.1680993,-92.3583984375,-59.6630859375,-101.1474609375
22.1965492,-87.8173828125,-60.5908203125,-102.7099609375
22.2263195,-84.3994140625,-62.3486328125,-104.8095703125
22.259017,-81.7138671875,-63.6669921875,-106.5185546875
22.2849297,-77.7587890625,-64.2041015625,-108.6181640625
22.3384183,-76.0986328125,-67.2802734375,-110.4248046875
22.3497241,-75.8056640625,-67.8173828125,-112.8173828125
22.3772506,-76.7822265625,-69.7216796875,-114.6240234375
22.4275012,-77.9052734375,-71.9677734375,-117.3095703125
22.4489581,-77.9541015625,-73.0419921875,-119.0673828125
22.4660302,-78.5888671875,-74.7998046875,-121.6064453125
22.5011975,-81.1279296875,-76.2646484375,-123.1201171875
22.5281067,-81.6162109375,-77.5830078125,-124.9267578125
22.5578776,-84.3505859375,-78.7548828125,-127.3193359375
22.589564,-85.2294921875,-78.2177734375,-129.3701171875
22.618818,-86.8896484375,-76.4111328125,-128.8330078125
22.6509229,-89.0380859375,-74.9951171875,-123.1689453125
22.7141976,-89.9169921875,-73.0419921875,-113.9404296875
22.7150481,-92.2119140625,-70.2099609375,-106.7626953125
22.7430404,-93.7744140625,-68.7939453125,-98.3154296875
22.7896742,-94.6044921875,-66.6943359375,-91.5771484375
22.8107244,-95.8251953125,-65.9619140625,-86.0595703125
22.8471764,-97.0947265625,-65.0341796875,-83.3251953125
22.8672465,-98.5595703125,-64.4482421875,-82.5927734375
22.8903942,-99.8779296875,-63.5693359375,-84.2529296875
22.9231704,-100.9521484375,-63.5693359375,-85.4736328125
22.9659041,-102.3681640625,-64.3505859375,-87.1826171875
22.9873477,-102.8564453125,-65.4736328125,-87.2314453125
23.0293026,-102.5634765625,-65.5712890625,-88.9892578125
23.0501259,-97.7783203125,-66.4990234375,-90.7470703125
23.0876329,-92.5537109375,-67.4267578125,-93.0419921875
23.1078028,-88.7939453125,-67.7685546875,-94.7998046875
23.1424588,-84.8876953125,-69.5263671875,-97.3388671875
23.1636903,-80.6396484375,-70.2587890625,-100.1220703125
23.2090402,-76.8310546875,-70.8935546875,-101.8798828125
23.2280302,-74.4384765625,-71.8701171875,-104.7607421875
23.2708588,-74.2431640625,-73.1396484375,-107.0556640625
23.2919109,-75.5126953125,-74.2138671875,-109.2529296875
23.3321099,-75.6591796875,-76.0205078125,-111.3037109375
23.3548749,-76.3427734375,-76.8017578125,-113.2080078125
23.3740788,-77.5634765625,-77.6318359375,-115.5029296875
23.4052372,-79.1748046875,-78.8037109375,-118.1884765625
23.4513737,-81.1767578125,-78.8525390625,-120.6787109375
23.4715171,-82.8369140625,-78.8037109375,-122.6318359375
23.5087027,-85.1318359375,-77.3388671875,-123.3642578125
23.5291641,-87.2802734375,-75.2880859375,-120.0927734375
23.5727927,-88.7451171875,-72.7978515625,-112.0361328125
23.5857759,-90.9912109375,-70.8447265625,-103.2470703125
23.6322958,-93.0908203125,-68.5009765625,-95.1904296875
23.6525015,-94.5068359375,-66.5966796875,-89.6240234375
23.6899911,-95.9716796875,-65.5712890625,-83.3740234375
23.7121636,-97.0458984375,-64.0087890625,-80.3955078125
23.7549433,-99.2919921875,-62.7392578125,-78.3935546875
23.7751908,-100.2685546875,-63.0322265625,-80.0537109375
23.8108176,-100.8056640625,-62.1533203125,-81.3232421875
23.8323288,-103.2958984375,-62.1044921875,-82.0068359375
23.8744242,-104.4677734375,-62.3974609375,-82.2998046875
23.8935813,-105.0048828125,-63.6181640625,-83.8134765625
23.9161806,-105.0048828125,-63.5693359375,-85.6689453125
23.9435132,-101.4892578125,-64.2529296875,-87.0849609375
23.9933855,-96.3134765625,-65.2783203125,-90.0634765625
24.0144237,-92.3583984375,-64.9853515625,-91.8212890625
24.0512383,-88.4033203125,-67.3291015625,-94.0673828125
24.0724048,-85.0830078125,-67.5244140625,-96.4111328125
24.113369,-82.2021484375,-68.5498046875,-99.1455078125
24.1345259,-80.2001953125,-70.0146484375,-100.9521484375
24.1584084,-78.7841796875,-70.9423828125,-103.4912109375
24.1910372,-79.8583984375,-72.2119140625,-106.0791015625
24.2340982,-80.9326171875,-72.6513671875,-107.9833984375
24.2552356,-81.6650390625,-74.7998046875,-110.6689453125
24.2939649,-82.7880859375,-75.4833984375,-112.6708984375
24.3180015,-83.9111328125,-76.5087890625,-115.6494140625
24.3568474,-85.2783203125,-75.8251953125,-117.6513671875
24.3782387,-86.5966796875,-74.2626953125,-119.2138671875
24.4148993,-88.3056640625,-72.8955078125,-116.0888671875
24.4350842,-89.6728515625,-70.0146484375,-107.9345703125
24.4867095,-91.8212890625,-67.7685546875,-98.2177734375
24.4894433,-92.2119140625,-65.1318359375,-88.7939453125
24.5347251,-93.7744140625,-62.8369140625,-82.3974609375
24.5659517,-95.6787109375,-60.8837890625,-75.8056640625
24.5813923,-96.6552734375,-60.0048828125,-71.5087890625
24.6423585,-97.8271484375,-58.8330078125,-70.1416015625
24.6431842,-99.0478515625,-58.3447265625,-71.4111328125
24.6706189,-99.6826171875,-57.5634765625,-73.0712890625
24.7162439,-101.5869140625,-57.0751953125,-74.8779296875
24.7350935,-102.9052734375,-57.5634765625,-75.5615234375
24.7769582,-104.7607421875,-58.3447265625,-77.5634765625
24.7984279,-105.4931640625,-59.2236328125,-79.1748046875
24.8226786,-103.2470703125,-59.3701171875,-80.9326171875
24.8508381,-98.2666015625,-60.6884765625,-83.6669921875
24.8981596,-94.8486328125,-60.9814453125,-86.8896484375
24.9184498,-90.9423828125,-61.8115234375,-89.5263671875
24.9554647,-87.4267578125,-62.6416015625,-92.5048828125
24.9854124,-84.1064453125,-63.6181640625,-95.4345703125
25.0023212,-82.1533203125,-64.3994140625,-98.3642578125
25.0357228,-81.0791015625,-66.1572265625,-101.1474609375
25.0806437,-82.3974609375,-67.8173828125,-104.2724609375
25.0919627,-83.2275390625,-69.2333984375,-106.6162109375
25.1395972,-83.3740234375,-69.8681640625,-109.4970703125
25.1532022,-84.3994140625,-71.2841796875,-112.2314453125
25.1826545,-85.4736328125,-72.2607421875,-114.0869140625
25.2310389,-86.7919921875,-73.7744140625,-117.2607421875
25.2435928,-88.9892578125,-72.5537109375,-119.4580078125
25.2777091,-90.2099609375,-71.4306640625,-118.6279296875
25.3219409,-91.9677734375,-69.7705078125,-111.8408203125
25.3329328,-94.3115234375,-67.3291015625,-101.4404296875
25.3917582,-95.2392578125,-65.5224609375,-90.9423828125
25.3947408,-96.4599609375,-62.2998046875,-82.6416015625
25.4276879,-97.7783203125,-60.7373046875,-74.8291015625
25.4696987,-99.4873046875,-59.5654296875,-68.8232421875
25.4855804,-100.6591796875,-58.9794921875,-64.8193359375
25.5327007,-102.0263671875,-58.5400390625,-64.8681640625
25.5463885,-103.4912109375,-58.7353515625,-65.7958984375
25.5764059,-104.7607421875,-57.7099609375,-67.1630859375
25.6205641,-106.6162109375,-58.0517578125,-68.2373046875
25.6386061,-107.2509765625,-59.1259765625,-69.0185546875
25.6654164,-108.2763671875,-59.2724609375,-70.5322265625
25.7135154,-107.8857421875,-60.3466796875,-72.6806640625
25.7267495,-103.7353515625,-60.5419921875,-75.1708984375
25.7595037,-98.2177734375,-61.7138671875,-76.7822265625
25.7910044,-93.7744140625,-62.6904296875,-79.4189453125
25.8303702,-91.1376953125,-64.3505859375,-82.4951171875
25.8501078,-87.3779296875,-65.5224609375,-84.4970703125
25.8793121,-84.6923828125,-66.7431640625,-87.1826171875
25.9069126,-81.5185546875,-68.0126953125,-89.4287109375
25.9408126,-81.5673828125,-68.7939453125,-92.3583984375
25.9697686,-83.4716796875,-70.9423828125,-94.7021484375
25.9978495,-84.0087890625,-72.5537109375,-97.2412109375
26.0293551,-84.2041015625,-73.6279296875,-99.5849609375
26.0603136,-85.7666015625,-74.7509765625,-102.9052734375
26.0915978,-87.1337890625,-75.6787109375,-104.7119140625
26.1192311,-88.4033203125,-75.8740234375,-107.5927734375
26.1494571,-90.0146484375,-74.0185546875,-109.2041015625
26.1809409,-91.3818359375,-72.7978515625,-105.8349609375
26.2113024,-92.7978515625,-69.9169921875,-96.6552734375
26.240185,-94.2138671875,-67.5732421875,-86.3037109375
26.2723802,-95.5322265625,-65.6201171875,-76.5380859375
26.3000597,-96.6064453125,-62.6904296875,-68.6279296875
26.3313122,-97.8271484375,-61.6650390625,-62.6708984375
26.3628673,-98.7548828125,-60.4443359375,-57.6416015625
26.3899833,-100.5615234375,-59.1259765625,-55.5419921875
26.4234,-101.5869140625,-59.2236328125,-57.0556640625
26.4508468,-102.7587890625,-58.4912109375,-58.2763671875
26.4816731,-103.8818359375,-58.7353515625,-59.7900390625
26.51285,-105.4931640625,-58.8818359375,-60.0830078125
26.5430304,-106.9091796875,-58.6376953125,-62.2802734375
26.5701969,-108.0810546875,-59.8095703125,-64.1845703125
26.6042847,-105.8837890625,-60.1025390625,-66.4306640625
26.6343791,-101.1474609375,-60.9814453125,-69.2138671875
26.6645996,-96.8017578125,-61.0302734375,-71.8994140625
26.6917798,-93.6279296875,-62.3974609375,-73.9501953125
26.7206725,-89.4775390625,-62.7392578125,-77.1728515625
26.7559897,-86.6943359375,-64.3017578125,-79.9072265625
26.7850121,-83.6669921875,-65.0830078125,-82.5439453125
26.813091,-81.8115234375,-66.5478515625,-85.1806640625
26.8464895,-82.6416015625,-66.8408203125,-88.5009765625
26.8739447,-83.5205078125,-68.3056640625,-90.6494140625
26.9037074,-84.3505859375,-69.1845703125,-93.3837890625
26.9343987,-84.7412109375,-70.0634765625,-96.2646484375
26.9643418,-86.2548828125,-71.3818359375,-98.6572265625
26.9986271,-87.6708984375,-72.5537109375,-101.1962890625
27.0243436,-89.3310546875,-72.0166015625,-104.4189453125
27.0551873,-90.4541015625,-70.1123046875,-104.6142578125
27.0878885,-92.1630859375,-67.3779296875,-99.0966796875
27.1149295,-93.6767578125,-65.4248046875,-88.6474609375
27.1489801,-94.4580078125,-62.7392578125,-78.3447265625
27.1772048,-96.8017578125,-60.1025390625,-69.6533203125
27.2063372,-97.5341796875,-58.3935546875,-62.5732421875
27.2367524,-98.7548828125,-56.3427734375,-57.0068359375
27.2685709,-100.1708984375,-55.1708984375,-53.3447265625
27.2952567,-100.6591796875,-54.7802734375,-53.1005859375
27.3270385,-102.0263671875,-54.1455078125,-55.3955078125
27.3742201,-103.4912109375,-53.5595703125,-57.6416015625
27.3954337,-104.1748046875,-54.1943359375,-58.3251953125
27.432833,-105.6884765625,-54.6826171875,-59.7412109375
27.4533293,-106.0791015625,-54.6826171875,-61.9873046875
27.4950407,-106.4208984375,-55.4638671875,-64.0869140625
27.506973,-103.5888671875,-55.5615234375,-66.7236328125
27.5364633,-98.5107421875,-56.3916015625,-69.3115234375
27.5836401,-94.2626953125,-57.0263671875,-71.7041015625
27.6053607,-90.7470703125,-58.6376953125,-75.0732421875
27.6441536,-87.5244140625,-59.3212890625,-77.7587890625
27.6646492,-84.3017578125,-60.9326171875,-80.5419921875
27.6882671,-81.6162109375,-61.0302734375,-82.9833984375
27.717903,-81.3232421875,-63.5205078125,-86.4013671875
27.7501591,-82.2998046875,-64.5458984375,-88.9404296875
27.7966045,-83.4228515625,-65.9619140625,-91.7236328125
27.8187453,-83.3251953125,-67.3291015625,-93.9208984375
27.8547211,-84.5947265625,-68.5009765625,-96.2646484375
27.8769163,-85.2294921875,-69.1357421875,-99.5849609375
27.913848,-86.9384765625,-69.7216796875,-101.9775390625
27.9350213,-88.5009765625,-69.0380859375,-104.2724609375
27.975919,-89.7216796875,-67.6220703125,-103.4423828125
27.9960638,-91.3330078125,-65.7177734375,-97.5341796875
28.0332832,-92.8466796875,-62.9345703125,-86.1083984375
28.0554956,-94.3603515625,-61.0302734375,-76.5380859375
28.0936241,-95.6298828125,-58.1494140625,-67.1630859375
28.1125358,-96.5087890625,-56.0498046875,-60.1318359375
28.1381567,-97.9248046875,-55.1708984375,-53.8818359375
28.1717977,-99.0478515625,-53.7060546875,-51.0498046875
28.2190341,-99.9755859375,-53.0224609375,-49.6826171875
28.2402994,-100.7568359375,-53.0712890625,-52.4658203125
28.2776671,-102.4658203125,-52.2412109375,-53.6865234375
28.2978085,-103.7841796875,-52.8759765625,-55.3955078125
28.3347111,-105.1025390625,-53.9501953125,-55.9814453125
28.3558168,-105.4931640625,-54.8779296875,-58.5693359375
28.3985961,-105.2490234375,-55.1708984375,-60.4736328125
28.4191593,-101.5869140625,-56.6845703125,-63.0615234375
28.4584956,-96.6552734375,-57.7099609375,-65.3076171875
28.4798514,-92.6513671875,-59.0771484375,-68.3837890625
28.5184755,-89.6240234375,-60.3955078125,-71.3134765625
28.5394646,-85.7177734375,-61.7626953125,-73.5595703125
28.5754539,-82.9345703125,-62.3486328125,-76.5380859375
28.5969105,-80.5419921875,-63.7158203125,-78.3935546875
28.6360212,-80.3955078125,-65.5712890625,-81.5673828125
28.6560707,-82.2998046875,-67.3291015625,-83.5693359375
28.7005692,-82.7392578125,-68.0615234375,-85.8642578125
28.7207411,-83.2275390625,-69.9658203125,-88.3056640625
28.7588319,-84.4482421875,-72.0166015625,-90.5029296875
28.7790013,-85.4248046875,-72.4560546875,-93.3349609375
28.8157824,-87.0849609375,-72.7490234375,-96.1181640625
28.8374413,-88.8916015625,-72.7490234375,-98.0224609375
28.8793138,-90.2587890625,-72.0654296875,-98.4619140625
28.898373,-91.7724609375,-68.9892578125,-92.4560546875
28.9395611,-93.1396484375,-67.2802734375,-81.8115234375
28.959581,-95.0439453125,-65.1318359375,-70.8740234375
29.0006435,-96.0693359375,-63.1787109375,-61.2060546875
29.0208577,-97.0458984375,-60.9326171875,-53.4423828125
29.060187,-98.2177734375,-59.7607421875,-47.8271484375
29.0802441,-99.4384765625,-58.7841796875,-42.7490234375
29.1183689,-100.0732421875,-58.6376953125,-42.3583984375
29.1382772,-101.1962890625,-58.6865234375,-43.8232421875
29.1833911,-101.8798828125,-58.0029296875,-45.8740234375
29.2109541,-103.1494140625,-58.6376953125,-47.1435546875
29.2298888,-104.3212890625,-59.2724609375,-49.0966796875
29.2742622,-105.3466796875,-59.7607421875,-50.0732421875
29.3044885,-105.4931640625,-59.8095703125,-52.9052734375
29.3185226,-102.5146484375,-60.5908203125,-55.0048828125
29.3619543,-96.3134765625,-61.6650390625,-58.0322265625
29.3819065,-92.5048828125,-62.1044921875,-60.4736328125
29.4286757,-89.0380859375,-63.3740234375,-63.6474609375
29.4489587,-85.4248046875,-64.5947265625,-65.9912109375
29.4870639,-81.8603515625,-65.6201171875,-68.0419921875
29.4978921,-79.4189453125,-66.4501953125,-71.4111328125
29.5546609,-77.8076171875,-67.1826171875,-73.0712890625
29.5859849,-79.4677734375,-69.1357421875,-75.6591796875
29.5870167,-80.2001953125,-69.7216796875,-78.0029296875
29.632285,-80.0537109375,-71.4794921875,-80.5908203125
29.6530798,-81.1279296875,-71.8701171875,-83.0322265625
29.6905062,-83.1298828125,-72.8466796875,-85.7666015625
29.7127298,-84.2041015625,-73.2373046875,-87.8173828125
29.7550892,-86.0107421875,-72.1630859375,-90.4052734375
29.7764986,-87.5732421875,-70.1123046875,-89.6240234375
29.8143713,-88.8916015625,-67.8173828125,-82.0556640625
29.8358892,-90.3564453125,-65.2783203125,-71.5576171875
29.8729644,-92.3095703125,-63.5205078125,-60.8642578125
29.8933139,-93.8232421875,-60.7373046875,-52.4169921875
29.9362997,-94.3603515625,-59.1748046875,-45.8251953125
29.9566566,-96.4599609375,-58.8330078125,-40.2587890625
29.9932104,-97.6318359375,-56.7333984375,-37.3291015625
30.0130441,-98.9501953125,-56.2939453125,-38.6474609375
30.0674753,-100.0732421875,-56.6845703125,-41.4306640625
30.0877477,-100.8544921875,-56.0498046875,-43.2373046875
30.1052511,-102.3681640625,-55.6591796875,-45.0439453125
30.1421307,-103.0029296875,-56.7333984375,-46.8017578125
30.1620824,-103.3935546875,-57.1240234375,-48.3154296875
30.2063414,-104.3701171875,-57.6123046875,-50.2685546875
30.2269857,-101.8310546875,-58.5888671875,-53.5888671875
30.2640918,-96.6064453125,-59.3701171875,-55.9814453125
30.2839589,-91.9189453125,-59.8095703125,-58.6669921875
30.3279056,-88.2080078125,-60.6884765625,-61.6943359375
30.3420047,-84.5947265625,-62.0068359375,-64.9658203125
30.3861652,-81.4208984375,-62.7392578125,-67.8955078125
30.4063613,-78.2958984375,-64.3017578125,-70.4833984375
30.4424724,-76.6845703125,-65.1318359375,-73.2666015625
30.4669231,-78.3935546875,-66.8896484375,-76.5869140625
30.50953,-78.8818359375,-67.1826171875,-78.1982421875
30.5284367,-79.0283203125,-70.2587890625,-80.3955078125
30.5701421,-79.5166015625,-70.0634765625,-83.4716796875
30.5832719,-81.0302734375,-70.0634765625,-86.6943359375
30.6414286,-81.9580078125,-70.5517578125,-88.8916015625
30.6627204,-82.9345703125,-68.8916015625,-90.3564453125
30.6749259,-84.4970703125,-66.4990234375,-86.3037109375
30.717306,-85.2294921875,-63.3740234375,-77.4169921875
30.7383785,-86.4990234375,-61.4697265625,-66.0400390625
30.7790839,-87.7685546875,-58.6376953125,-55.8349609375
30.7994289,-88.4521484375,-55.6103515625,-47.4365234375
30.8442235,-90.0634765625,-55.2197265625,-40.6982421875
30.8583296,-91.0400390625,-52.6318359375,-35.3759765625
30.8964186,-91.3330078125,-51.1181640625,-32.9345703125
30.9178632,-92.7978515625,-51.3134765625,-34.6435546875
30.9674723,-94.2138671875,-51.6064453125,-37.1337890625
30.9763585,-95.2392578125,-50.7763671875,-38.2080078125
31.0320683,-96.2646484375,-51.8505859375,-40.6005859375
31.0381656,-97.8759765625,-52.0458984375,-42.8955078125
31.0755523,-98.8037109375,-52.4853515625,-44.4091796875
31.095779,-98.9990234375,-53.0712890625,-47.3876953125
31.1283178,-96.2646484375,-54.7314453125,-49.0478515625
31.1578993,-91.3818359375,-55.0732421875,-52.4169921875
31.1903448,-87.3779296875,-56.8310546875,-54.8583984375
31.2273093,-83.9111328125,-59.0283203125,-58.2275390625
31.2491754,-80.2490234375,-59.6630859375,-60.5712890625
31.2810196,-77.5146484375,-61.2744140625,-63.1103515625
31.3174089,-74.9267578125,-62.5439453125,-64.7705078125
31.3407138,-73.6083984375,-64.9853515625,-67.0166015625
31.370086,-75.3173828125,-66.4501953125,-68.9208984375
31.3996403,-75.4638671875,-67.6220703125,-71.8017578125
31.4307258,-76.2939453125,-69.6728515625,-73.4130859375
31.4601232,-77.0751953125,-70.6982421875,-75.6103515625
31.4907073,-78.0029296875,-72.3095703125,-78.2470703125
31.5209503,-80.1513671875,-71.8212890625,-80.9326171875
31.5498029,-81.9091796875,-69.8681640625,-81.5673828125
31.5783566,-82.6904296875,-68.8427734375,-76.0986328125
31.6131986,-83.9111328125,-66.5478515625,-65.8447265625
31.6401195,-84.9365234375,-63.8623046875,-55.2490234375
31.6750056,-86.7919921875,-61.6162109375,-45.3857421875
31.701713,-87.1826171875,-59.5654296875,-37.6708984375
31.740516,-88.5986328125,-58.2470703125,-31.2744140625
31.7626652,-90.4052734375,-57.4658203125,-26.1962890625
31.7921324,-90.5517578125,-56.4892578125,-25.8056640625
31.8217015,-91.5283203125,-55.9033203125,-27.4658203125
31.8541179,-92.3095703125,-56.0009765625,-29.6142578125
31.8826219,-93.6767578125,-56.8798828125,-31.0302734375
31.9165516,-94.7998046875,-57.3193359375,-33.5693359375
31.9449498,-95.8251953125,-57.3193359375,-34.8876953125
31.9741274,-96.8994140625,-58.4912109375,-37.8662109375
32.0066216,-96.5576171875,-59.4189453125,-40.3076171875
32.034961,-92.6513671875,-60.5908203125,-43.2861328125
32.0634906,-86.4501953125,-62.0068359375,-46.0693359375
32.096214,-82.9345703125,-62.7392578125,-48.4619140625
32.1242916,-78.2958984375,-64.2529296875,-51.4892578125
32.154102,-74.6337890625,-66.0595703125,-54.5654296875
32.2050378,-71.1181640625,-67.4755859375,-57.3974609375
32.2247063,-66.7724609375,-67.8662109375,-59.7900390625
32.2464282,-66.6748046875,-70.2587890625,-63.4033203125
32.2766436,-67.0654296875,-71.3330078125,-65.6982421875
32.3042763,-67.0166015625,-74.0185546875,-67.8955078125
32.333807,-67.5048828125,-74.0673828125,-70.6298828125
32.3875411,-68.2373046875,-75.4833984375,-74.1455078125
32.4172287,-69.4580078125,-75.7275390625,-76.6845703125
32.4286966,-70.9228515625,-75.6787109375,-79.0771484375
32.4571871,-72.8271484375,-73.6767578125,-79.7119140625
32.4850557,-74.4384765625,-70.4052734375,-74.3408203125
32.534042,-76.1474609375,-68.5498046875,-64.2333984375
32.554295,-77.1728515625,-66.2060546875,-54.6142578125
32.5937384,-79.0771484375,-63.5205078125,-46.8017578125
32.6076792,-81.1767578125,-62.0068359375,-40.0634765625
32.6364635,-82.7880859375,-60.5419921875,-34.8876953125
32.6693373,-84.2529296875,-59.1259765625,-31.2744140625
32.7282934,-85.4736328125,-59.1259765625,-31.5673828125
32.7300205,-86.9384765625,-58.1005859375,-34.1552734375
32.7581287,-88.5498046875,-58.6865234375,-36.6943359375
32.8067184,-89.5751953125,-58.8818359375,-38.3544921875
32.8279494,-91.6259765625,-58.8818359375,-40.3564453125
32.8691888,-92.6025390625,-59.5166015625,-41.4306640625
32.8893331,-93.7744140625,-59.8583984375,-44.3115234375
32.9280466,-93.7744140625,-60.8349609375,-47.7783203125
32.9468818,-89.1357421875,-62.3974609375,-50.1220703125
32.9827858,-83.4716796875,-63.4228515625,-52.7099609375
33.0025428,-78.7841796875,-63.6669921875,-55.9326171875
33.0443584,-74.8779296875,-65.3271484375,-58.9599609375
33.0644034,-71.5576171875,-66.4990234375,-61.8408203125
33.103321,-67.6025390625,-67.6220703125,-64.6728515625
33.1234252,-64.9169921875,-69.0869140625,-67.2607421875
33.1670667,-64.0380859375,-70.8935546875,-70.7275390625
33.1874176,-65.1611328125,-71.7236328125,-73.6083984375
33.2243538,-65.9423828125,-73.0419921875,-76.7822265625
33.2456075,-65.2587890625,-74.9951171875,-78.5400390625
33.2823346,-66.4794921875,-75.6298828125,-81.5185546875
33.3024492,-67.3095703125,-76.8017578125,-84.7900390625
33.3442422,-69.4091796875,-76.5576171875,-87.6220703125
33.3643352,-70.1904296875,-74.9951171875,-89.4775390625
33.4055845,-71.8505859375,-73.2373046875,-86.4013671875
33.4257441,-74.0478515625,-71.0888671875,-78.1494140625
33.4759427,-75.7568359375,-68.3544921875,-68.4814453125
33.4967478,-77.1728515625,-66.3525390625,-59.7412109375
33.5138201,-78.6865234375,-63.6669921875,-52.0751953125
33.553715,-80.2001953125,-61.2744140625,-46.4111328125
33.5739425,-81.5673828125,-61.4697265625,-41.7236328125
33.6113685,-82.5439453125,-59.6630859375,-39.1357421875
33.6349346,-83.8134765625,-58.7841796875,-40.8935546875
33.6714563,-85.5224609375,-58.6376953125,-43.4814453125
33.6915819,-87.3291015625,-58.9306640625,-44.9951171875
33.7325623,-88.5498046875,-59.5654296875,-46.5576171875
33.7542466,-89.6728515625,-59.9072265625,-48.8037109375
33.7929599,-90.3076171875,-60.3955078125,-51.0009765625
33.8130006,-90.5517578125,-62.0556640625,-53.7353515625
33.8556964,-86.2060546875,-63.1298828125,-56.1767578125
33.8764287,-80.6884765625,-64.0576171875,-59.0087890625
33.9182367,-76.0498046875,-65.2294921875,-62.5732421875
33.9392486,-72.5830078125,-66.0107421875,-65.3076171875
33.9769608,-68.4326171875,-67.5244140625,-68.6279296875
33.9973929,-65.0634765625,-69.7216796875,-70.2880859375
34.0362109,-62.8173828125,-70.9423828125,-74.1943359375
34.0573345,-62.1826171875,-72.0654296875,-76.7333984375
34.0951852,-63.7939453125,-73.4814453125,-80.3466796875
34.1152186,-63.9404296875,-74.5556640625,-82.5927734375
34.1521599,-63.5498046875,-76.1669921875,-85.2294921875
34.1741769,-64.6728515625,-77.6318359375,-87.7685546875
34.2155619,-66.2841796875,-79.6826171875,-90.8447265625
34.2378183,-67.4072265625,-80.6591796875,-93.1884765625
34.2752654,-69.4091796875,-80.8544921875,-95.8251953125
34.2993588,-71.0693359375,-80.1220703125,-97.7783203125
34.3362648,-72.8271484375,-77.4853515625,-96.0205078125
34.3553213,-74.5361328125,-76.2158203125,-89.0380859375
34.3982705,-76.5380859375,-73.6279296875,-78.7841796875
34.4189661,-77.6611328125,-72.0654296875,-70.3857421875
34.4568102,-79.3212890625,-68.6474609375,-61.7919921875
34.4779325,-80.7861328125,-67.2802734375,-54.5654296875
34.5211731,-82.6416015625,-65.9619140625,-48.8525390625
34.5410451,-84.2041015625,-65.1806640625,-45.1904296875
34.5817995,-85.5712890625,-64.9853515625,-45.5810546875
34.6008895,-87.0849609375,-64.8388671875,-47.1435546875
34.6387924,-88.1103515625,-64.4482421875,-48.5595703125
34.6595353,-89.9658203125,-65.6201171875,-49.7802734375
34.7083693,-91.7236328125,-66.4501953125,-50.3173828125
34.7379442,-91.6748046875,-66.5478515625,-52.8564453125
34.7481232,-90.7470703125,-68.1103515625,-54.6630859375
34.8012292,-84.8876953125,-68.5498046875,-57.1533203125
34.8211185,-79.4189453125,-70.1611328125,-59.5947265625
34.8385676,-75.3662109375,-70.9423828125,-62.6220703125
34.8718907,-71.9482421875,-72.4560546875,-64.8681640625
34.9145109,-68.2861328125,-73.5302734375,-67.1630859375
34.9348724,-64.6728515625,-74.5068359375,-69.9462890625
34.9765239,-62.6220703125,-76.5087890625,-72.3876953125
34.9957683,-63.0615234375,-78.9013671875,-74.4873046875
35.0312725,-64.1845703125,-79.7802734375,-77.6611328125
35.051784,-65.1123046875,-81.8798828125,-79.7119140625
35.09313,-65.8935546875,-82.8564453125,-82.0556640625
35.1136361,-66.6748046875,-84.1259765625,-84.3505859375
35.1584407,-69.0185546875,-85.9814453125,-86.3037109375
35.1789659,-70.8740234375,-86.7138671875,-88.5498046875
35.2192065,-72.2900390625,-88.7646484375,-90.7470703125
35.2328436,-74.0966796875,-88.8134765625,-92.3583984375
35.2728318,-76.3916015625,-86.9091796875,-93.6767578125
35.2951671,-77.8564453125,-84.7607421875,-90.1611328125
35.3321579,-79.2724609375,-82.5634765625,-82.1533203125
35.3535268,-81.2744140625,-79.7314453125,-71.9482421875
35.3961953,-82.5927734375,-77.6806640625,-61.9873046875
35.4174069,-83.8134765625,-75.5810546875,-54.6142578125
35.4525896,-85.5712890625,-74.3115234375,-47.5830078125
35.4747936,-86.2548828125,-72.5048828125,-42.5537109375
35.5144091,-87.5732421875,-72.0654296875,-39.7705078125
35.5351166,-89.8193359375,-70.8447265625,-41.2841796875
35.5782351,-90.5029296875,-70.9912109375,-42.7490234375
35.5936565,-92.0166015625,-70.7470703125,-44.3603515625
35.6307061,-93.5302734375,-71.0888671875,-45.2392578125
35.6548608,-94.4091796875,-71.6259765625,-47.1435546875
35.6917669,-94.5556640625,-72.9443359375,-49.5361328125
35.7139895,-89.9658203125,-72.7001953125,-52.4658203125
35.7588897,-84.7412109375,-73.2373046875,-55.6884765625
35.7769287,-79.9072265625,-74.3603515625,-58.4716796875
35.8202563,-76.4892578125,-75.1904296875,-61.3525390625
35.8359415,-72.2412109375,-76.6552734375,-65.1611328125
35.8788626,-68.5302734375,-77.1435546875,-67.9931640625
35.896088,-66.1376953125,-78.0712890625,-71.1669921875
35.9350618,-64.8193359375,-79.3408203125,-74.1455078125
35.9570819,-66.0888671875,-80.2685546875,-77.6123046875
35.9864156,-67.1142578125,-81.8798828125,-81.5673828125
36.022741,-67.3095703125,-83.1005859375,-84.3017578125
36.045919,-68.5302734375,-83.9794921875,-86.8408203125
36.0891232,-70.1904296875,-85.8837890625,-90.3564453125
36.1080785,-71.9970703125,-86.7626953125,-93.3349609375
36.1369355,-73.5595703125,-87.4951171875,-96.0205078125
36.1668928,-74.7802734375,-88.2763671875,-98.3642578125
36.2034738,-76.5380859375,-86.9580078125,-101.6357421875
36.2270433,-78.3447265625,-84.9560546875,-102.0263671875
36.2611226,-79.8095703125,-82.7099609375,-95.9716796875
36.2986518,-81.4208984375,-80.2197265625,-88.3544921875
36.316856,-83.2763671875,-78.2666015625,-80.3955078125
36.3473099,-84.0087890625,-76.0205078125,-73.1689453125
36.3943422,-85.0830078125,-73.7255859375,-67.3583984375
36.4094051,-85.8154296875,-73.0419921875,-62.8173828125
36.4474145,-87.5732421875,-71.3330078125,-59.7900390625
36.4687026,-88.2568359375,-70.9423828125,-60.1806640625
36.4993851,-89.5751953125,-70.4052734375,-61.9384765625
36.5364299,-91.0400390625,-70.7958984375,-64.2822265625
36.5586299,-91.7236328125,-71.2841796875,-65.6494140625
36.5933487,-93.3837890625,-71.3330078125,-66.9189453125
36.6209304,-94.2138671875,-72.0654296875,-68.5791015625
36.6497646,-93.6767578125,-72.3095703125,-71.6552734375
36.6865268,-88.5986328125,-72.5048828125,-74.0478515625
36.7109894,-83.2763671875,-74.4091796875,-76.4404296875
36.7390922,-78.4912109375,-75.3369140625,-78.9306640625
36.7721735,-74.8779296875,-75.7763671875,-82.2021484375
36.8014393,-70.1416015625,-77.0947265625,-85.1318359375
36.8302589,-67.1630859375,-78.5107421875,-88.8916015625
36.8765394,-64.4775390625,-79.1455078125,-91.3818359375
36.8905579,-63.1591796875,-80.8056640625,-94.7021484375
36.9206976,-64.3310546875,-82.3681640625,-97.6806640625
36.9578279,-64.4775390625,-82.9052734375,-100.5126953125
36.9807451,-64.2822265625,-84.8583984375,-103.6865234375
37.0134005,-65.0634765625,-86.1767578125,-106.0302734375
37.0432667,-66.2841796875,-87.5439453125,-109.2041015625
37.071469,-67.7978515625,-87.6416015625,-112.2314453125
37.1044505,-68.8720703125,-88.5205078125,-114.8681640625
37.132273,-70.9716796875,-87.8857421875,-117.8466796875
37.1628246,-72.4365234375,-86.3720703125,-117.7001953125
37.1944635,-73.6083984375,-83.4423828125,-112.8662109375
37.2236187,-75.9521484375,-82.5146484375,-106.0791015625
37.2522374,-76.9287109375,-80.1220703125,-98.1201171875
37.2834845,-78.5400390625,-78.0224609375,-91.5283203125
37.3127399,-80.2490234375,-75.7763671875,-86.0595703125
37.3466841,-81.9091796875,-75.0927734375,-80.9814453125
37.375053,-82.7880859375,-74.7021484375,-77.2216796875
37.404029,-84.7412109375,-73.5791015625,-76.8310546875
37.435757,-85.9130859375,-73.9697265625,-78.2958984375
37.4657822,-86.9384765625,-73.5791015625,-79.6142578125
37.4962459,-89.4287109375,-74.7998046875,-81.0791015625
37.5252453,-90.3564453125,-74.6044921875,-82.9833984375
37.5562663,-91.2841796875,-75.5322265625,-84.6923828125
37.5837404,-92.0654296875,-76.7041015625,-86.7919921875
37.6334978,-89.6728515625,-77.9736328125,-88.2568359375
37.6545006,-84.2041015625,-78.5595703125,-91.1865234375
37.689189,-79.1748046875,-79.8291015625,-93.7255859375
37.710491,-75.3662109375,-81.0009765625,-96.5576171875
37.7342906,-71.7529296875,-81.8798828125,-99.2919921875
37.7679717,-67.5048828125,-82.6611328125,-101.0986328125
37.8114625,-65.3076171875,-84.9560546875,-104.2236328125
37.8314198,-62.9150390625,-86.5185546875,-107.1044921875
37.872838,-63.4521484375,-87.7880859375,-109.3017578125
37.8952945,-65.2587890625,-89.1064453125,-112.3779296875
37.914433,-65.2099609375,-91.0107421875,-114.9658203125
37.9466318,-66.1865234375,-91.6943359375,-116.4306640625
37.9916967,-67.4560546875,-94.2333984375,-119.7021484375
38.011805,-69.0673828125,-94.8193359375,-122.0947265625
38.0370167,-71.2646484375,-95.8447265625,-124.0966796875
38.0687921,-73.3642578125,-95.3076171875,-126.4892578125
38.1138619,-75.1220703125,-93.1591796875,-127.5634765625
38.1338987,-77.5634765625,-92.7197265625,-124.6826171875
38.1712382,-78.4912109375,-90.8154296875,-117.8466796875
38.1924477,-80.3466796875,-87.4462890625,-110.2783203125
38.2305193,-81.5673828125,-86.0302734375,-103.1494140625
38.2515295,-83.2763671875,-84.6142578125,-95.9716796875
38.2925015,-84.6435546875,-83.1982421875,-91.2841796875
38.3140058,-86.2060546875,-80.6103515625,-86.3037109375
38.3521489,-87.5732421875,-80.8544921875,-85.3759765625
38.3710485,-88.9404296875,-80.3662109375,-85.2783203125
38.4146107,-89.9658203125,-79.7314453125,-87.0849609375
38.4337587,-92.0654296875,-79.9755859375,-87.9150390625
38.4738046,-92.9931640625,-79.7802734375,-88.7939453125
38.494761,-94.7509765625,-79.7314453125,-89.6728515625
38.5340407,-95.3369140625,-81.0498046875,-90.7470703125
38.5542506,-94.9462890625,-81.7822265625,-92.8466796875
38.5930185,-89.6728515625,-81.9775390625,-94.9462890625
38.6149342,-84.4970703125,-82.0263671875,-96.7529296875
38.6546738,-80.1025390625,-82.8564453125,-99.0966796875
38.6770542,-76.3916015625,-83.8818359375,-101.5869140625
38.7133396,-72.9736328125,-84.6630859375,-103.3935546875
38.7347743,-69.1650390625,-84.9072265625,-105.9326171875
38.7736253,-67.5048828125,-86.4697265625,-107.5927734375
38.7940341,-66.7724609375,-86.8603515625,-109.8876953125
38.842325,-68.4814453125,-88.0810546875,-112.1337890625
38.862708,-69.7509765625,-89.1064453125,-114.9169921875
38.8808501,-69.9462890625,-91.1083984375,-116.9189453125
38.9232273,-71.3134765625,-91.5478515625,-118.5791015625
38.9427375,-73.1689453125,-92.1826171875,-121.5576171875
38.983129,-74.8779296875,-91.7431640625,-123.8037109375
39.0043662,-76.1962890625,-91.6455078125,-125.2197265625
39.0449727,-78.3935546875,-88.9599609375,-125.2685546875
39.0660421,-80.2978515625,-87.4462890625,-119.5068359375
39.1029684,-81.3720703125,-85.1513671875,-111.8408203125
39.1231402,-83.1298828125,-82.7587890625,-103.5400390625
39.1614414,-84.8876953125,-80.1708984375,-96.3623046875
39.1847572,-86.3525390625,-78.0712890625,-90.6494140625
39.2208437,-87.4755859375,-77.3388671875,-85.8154296875
39.2467468,-88.3544921875,-75.7275390625,-82.7880859375
39.2839182,-90.2587890625,-76.0693359375,-82.6904296875
39.3039674,-91.4306640625,-74.4091796875,-83.9599609375
39.3584592,-92.5537109375,-74.4580078125,-84.5458984375
39.3895925,-94.2626953125,-75.2392578125,-85.5712890625
39.3954776,-95.3369140625,-75.5322265625,-86.4501953125
39.4312925,-97.0458984375,-74.9951171875,-88.3056640625
39.4524188,-97.3388671875,-75.9716796875,-89.5263671875
39.4958842,-97.8759765625,-76.8994140625,-91.2353515625
39.5179311,-95.7275390625,-77.2412109375,-93.4326171875
39.5541969,-89.6728515625,-78.7548828125,-95.4833984375
39.5762646,-85.8154296875,-79.3896484375,-97.8759765625
39.6209532,-81.9091796875,-80.6103515625,-100.1708984375
39.641104,-78.1494140625,-81.4892578125,-102.3681640625
39.6772055,-74.6826171875,-81.8310546875,-104.3212890625
39.6983953,-71.9482421875,-83.1982421875,-106.4697265625
39.7486063,-70.6787109375,-84.4189453125,-108.5205078125
39.7777293,-71.3134765625,-85.5419921875,-110.6689453125
39.7888039,-72.1435546875,-86.4697265625,-113.2080078125
39.8262563,-71.5087890625,-87.7880859375,-114.9169921875
39.847518,-72.2412109375,-88.7646484375,-117.3095703125
39.8913775,-74.0966796875,-87.7880859375,-120.1416015625
39.9108578,-74.8779296875,-88.0322265625,-121.7529296875
39.9485939,-75.9033203125,-85.2978515625,-122.7783203125
39.9688844,-77.8564453125,-83.3935546875,-116.9677734375
40.007215,-79.2236328125,-82.4658203125,-108.3740234375
40.0275489,-80.9814453125,-78.3154296875,-99.5361328125
40.0682777,-82.3486328125,-76.8994140625,-91.4306640625
40.0896821,-83.6181640625,-74.9462890625,-85.1318359375
40.1259783,-84.5458984375,-73.5302734375,-80.2978515625
40.1516423,-85.8154296875,-72.2607421875,-76.8310546875
40.1917079,-87.3779296875,-72.0654296875,-75.6103515625
40.2120056,-88.8427734375,-71.2353515625,-77.2705078125
40.2476863,-90.2099609375,-71.5283203125,-79.4677734375
40.2690722,-91.3330078125,-71.4306640625,-79.5654296875
40.3098687,-93.0419921875,-72.0166015625,-80.9326171875
40.3307176,-94.2626953125,-72.7001953125,-82.2021484375
40.3656389,-95.7763671875,-73.6279296875,-83.8623046875
40.3916744,-96.5576171875,-74.7021484375,-85.1318359375
40.4311036,-96.7529296875,-74.9951171875,-87.0361328125
40.4547435,-93.1884765625,-76.7529296875,-89.2822265625
40.4928524,-87.8173828125,-78.2177734375,-91.2353515625
40.5139592,-84.0576171875,-78.9990234375,-93.8720703125
40.5519336,-79.9560546875,-80.2685546875,-95.9228515625
40.5729523,-76.9287109375,-81.3916015625,-97.3876953125
40.6108289,-73.5595703125,-83.0517578125,-99.4873046875
40.6332394,-71.5576171875,-84.2724609375,-102.0263671875
40.670689,-70.8251953125,-85.6396484375,-103.2470703125
40.69103,-72.2412109375,-87.2509765625,-105.4931640625
40.7323375,-73.0224609375,-88.9599609375,-107.4462890625
40.7526173,-73.5595703125,-89.8388671875,-110.2294921875
40.7898175,-74.5849609375,-90.7177734375,-111.8408203125
40.8147596,-76.1474609375,-90.1806640625,-113.2568359375
40.8533157,-77.7099609375,-88.5693359375,-114.2333984375
40.8766269,-79.6142578125,-86.8603515625,-110.4248046875
40.9129684,-80.8349609375,-84.4677734375,-101.9775390625
40.934418,-82.6416015625,-82.1728515625,-92.5537109375
40.9710776,-84.2041015625,-79.7802734375,-83.7158203125
40.9940161,-85.3759765625,-76.8017578125,-77.2216796875
41.0301861,-86.8896484375,-76.8017578125,-71.6552734375
41.0556039,-87.6220703125,-74.7998046875,-66.9189453125
41.0946545,-89.0380859375,-74.3603515625,-64.9169921875
41.1169497,-90.2587890625,-73.9208984375,-66.5283203125
41.1534127,-91.8212890625,-72.9443359375,-68.3837890625
41.1744313,-92.6025390625,-73.9208984375,-68.7744140625
41.2152532,-93.4326171875,-74.4580078125,-69.5068359375
41.2363439,-95.2392578125,-75.2880859375,-70.5810546875
41.2890997,-96.3134765625,-75.0439453125,-72.6318359375
41.3081228,-97.0947265625,-74.9462890625,-74.3896484375
41.3280918,-97.4853515625,-76.1181640625,-76.2451171875
41.3676415,-95.0439453125,-77.2900390625,-78.2470703125
41.3885682,-89.2822265625,-78.1689453125,-80.8349609375
41.4252836,-84.9365234375,-77.5341796875,-83.0810546875
41.451383,-80.9814453125,-78.9501953125,-85.9130859375
41.4787347,-78.3447265625,-79.5849609375,-87.6220703125
41.5148195,-74.8779296875,-81.0986328125,-89.3798828125
41.5378626,-71.8994140625,-81.6357421875,-92.5048828125
41.5849662,-70.6787109375,-82.9541015625,-94.0185546875
41.593921,-71.0205078125,-83.9306640625,-96.5087890625
41.6298754,-72.1923828125,-84.2236328125,-98.3154296875
41.6702179,-73.0224609375,-84.9560546875,-101.2939453125
41.6916944,-73.9990234375,-86.0791015625,-102.6123046875
41.7208893,-75.7568359375,-84.9072265625,-105.3955078125
41.7473962,-76.9287109375,-82.9052734375,-105.8837890625
41.7859217,-79.0283203125,-80.6103515625,-101.8798828125
41.8110215,-81.1279296875,-78.3154296875,-92.8955078125
41.8485693,-82.4951171875,-75.6298828125,-83.4228515625
41.8721953,-84.7900390625,-72.9443359375,-75.8056640625
41.9003449,-86.2060546875,-71.2353515625,-69.7021484375
41.9283594,-87.4267578125,-69.6240234375,-64.4775390625
41.9651986,-88.4521484375,-68.3544921875,-60.9619140625
41.9896466,-89.5751953125,-67.8662109375,-60.4736328125
42.0239208,-91.0400390625,-67.4267578125,-62.3291015625
42.0515929,-92.2119140625,-66.7919921875,-63.4521484375
42.0810445,-92.9931640625,-66.4990234375,-64.1357421875
42.1130674,-93.6279296875,-66.4501953125,-65.2099609375
42.1417697,-94.8486328125,-67.6220703125,-67.0166015625
42.1728773,-96.0693359375,-68.6474609375,-68.4326171875
42.2033595,-97.1923828125,-68.8916015625,-71.5087890625
42.2294369,-97.5341796875,-69.5263671875,-72.8271484375
42.2689815,-97.4853515625,-70.0634765625,-75.6103515625
42.3117688,-93.3837890625,-71.4306640625,-78.1005859375
42.3320263,-88.0615234375,-72.2607421875,-80.4443359375
42.3690955,-84.1064453125,-72.9931640625,-82.7392578125
42.3884224,-80.6396484375,-73.8232421875,-84.7900390625
42.4112415,-77.0263671875,-74.7998046875,-87.9150390625
42.4450818,-73.7060546875,-76.2646484375,-89.4287109375
42.472789,-71.4599609375,-77.2412109375,-92.0166015625
42.5020289,-71.7041015625,-78.8525390625,-94.0185546875
42.5513807,-72.6806640625,-80.1708984375,-96.9482421875
42.5713228,-73.1201171875,-80.3173828125,-98.6083984375
42.6180155,-73.6572265625,-81.0986328125,-101.6845703125
42.6228094,-74.8291015625,-79.2431640625,-103.8330078125
42.6535561,-75.9033203125,-77.7783203125,-103.0029296875
42.6856971,-76.8310546875,-75.9716796875,-96.9482421875
42.7334946,-78.5400390625,-72.7490234375,-86.5966796875
42.7523676,-80.2978515625,-70.1123046875,-76.9775390625
42.7905176,-81.3232421875,-67.3779296875,-68.7255859375
42.81126,-82.6416015625,-65.0341796875,-62.7197265625
42.8323928,-83.7158203125,-63.2275390625,-56.1767578125
42.8674011,-84.9853515625,-62.1533203125,-52.7099609375
42.8933668,-86.2060546875,-61.4697265625,-52.8076171875
42.9424629,-87.3291015625,-61.0302734375,-54.8583984375
42.9567808,-88.7451171875,-60.8837890625,-57.0556640625
42.9994579,-89.2822265625,-59.9560546875,-58.2275390625
43.0195209,-90.5517578125,-61.1279296875,-59.3994140625
43.0615108,-91.9677734375,-61.2744140625,-61.5966796875
43.0818177,-93.0419921875,-62.6416015625,-64.0869140625
43.1238768,-94.3603515625,-63.1298828125,-66.2353515625
43.1440666,-95.0927734375,-63.8134765625,-68.3837890625
43.1659954,-95.0927734375,-64.8388671875,-71.4111328125
43.1991377,-90.5517578125,-66.4990234375,-73.5595703125
43.225967,-85.6201171875,-67.1826171875,-76.0009765625
43.2726576,-81.1767578125,-68.2568359375,-79.2724609375
43.2918961,-77.9541015625,-69.5751953125,-80.8349609375
43.3276791,-74.7802734375,-71.7724609375,-82.9345703125
43.3495299,-71.4111328125,-73.2373046875,-85.4736328125
43.4032293,-69.7021484375,-74.2626953125,-87.8662109375
43.4233328,-69.6533203125,-76.1181640625,-89.7216796875
43.4372888,-70.7275390625,-77.9736328125,-91.5283203125
43.4840693,-71.0205078125,-78.2177734375,-94.6533203125
43.503168,-71.6552734375,-80.2685546875,-96.5087890625
43.542948,-72.4365234375,-79.2919921875,-98.8037109375
43.565089,-73.9501953125,-77.2900390625,-99.0966796875
43.6026395,-74.8779296875,-75.5322265625,-94.3115234375
43.6239719,-76.6845703125,-73.3837890625,-84.6435546875
43.6602527,-78.2470703125,-69.7216796875,-73.8525390625
43.6813494,-79.8583984375,-67.6708984375,-64.3798828125
43.7220423,-81.0791015625,-65.2294921875,-56.1767578125
43.742135,-83.2275390625,-64.9365234375,-49.7802734375
43.777813,-84.4482421875,-63.9599609375,-44.8486328125
43.7988709,-85.2294921875,-62.8369140625,-43.1396484375
43.8435615,-86.7431640625,-62.4462890625,-44.3115234375
43.8636619,-87.9638671875,-62.3486328125,-46.8505859375
43.9028428,-88.9404296875,-62.4951171875,-48.2666015625
43.9231792,-90.4052734375,-63.0810546875,-48.7060546875
43.9601996,-91.6259765625,-63.5693359375,-50.5126953125
43.9824498,-91.6748046875,-64.5947265625,-52.4658203125
44.022178,-93.7744140625,-65.2294921875,-54.6630859375
44.0420379,-93.6767578125,-66.1083984375,-57.1044921875
44.0825977,-93.4326171875,-67.2314453125,-59.9365234375
44.1044889,-88.0615234375,-68.2568359375,-62.8173828125
44.1447368,-82.4951171875,-69.7705078125,-65.0634765625
44.1636172,-78.4423828125,-70.9423828125,-67.7001953125
44.1992044,-74.9267578125,-71.7236328125,-70.6787109375
44.2203117,-72.0947265625,-72.8955078125,-73.0712890625
44.2619113,-68.1884765625,-74.1650390625,-76.1474609375
44.283553,-65.5029296875,-76.5576171875,-78.0517578125
44.3205048,-64.5263671875,-77.2900390625,-80.3955078125
44.3416936,-65.9912109375,-78.9501953125,-83.0810546875
44.3901175,-66.2353515625,-79.6337890625,-85.7177734375
44.4114285,-65.5029296875,-81.0009765625,-87.6708984375
44.4532235,-66.6748046875,-81.0498046875,-89.8193359375
44.4730203,-67.8955078125,-78.9990234375,-91.7236328125
44.5081216,-70.2392578125,-76.8505859375,-90.4541015625
44.5283712,-70.9716796875,-74.3115234375,-82.5927734375
44.5641662,-72.7294921875,-72.0166015625,-72.4853515625
44.5842566,-74.0478515625,-69.5263671875,-61.8896484375
44.6220712,-75.4638671875,-67.3779296875,-54.5654296875
44.6470038,-77.2216796875,-64.5947265625,-47.1435546875
44.6851903,-79.2724609375,-62.8857421875,-41.6748046875
44.7042586,-80.5908203125,-63.2275390625,-39.0869140625
44.7430935,-82.4951171875,-62.1533203125,-39.8681640625
44.765151,-83.7158203125,-62.2998046875,-41.9189453125
44.8041558,-85.4248046875,-61.7626953125,-44.3115234375
44.8266417,-86.8896484375,-61.6162109375,-45.4833984375
44.8728467,-88.2568359375,-62.0068359375,-46.4599609375
44.8923169,-90.2099609375,-63.3251953125,-49.1943359375
44.9324935,-91.3330078125,-63.1787109375,-52.1240234375
44.952612,-92.6025390625,-63.4716796875,-53.9794921875
44.9926963,-92.7978515625,-64.5458984375,-56.8603515625
45.0129728,-89.7705078125,-65.6201171875,-59.6923828125
45.0524353,-84.3505859375,-66.3037109375,-62.5732421875
45.0722548,-79.9560546875,-68.4521484375,-65.1123046875
45.1098199,-75.8544921875,-69.1357421875,-68.0419921875
45.1313425,-72.3876953125,-69.8681640625,-70.5322265625
45.1699373,-68.7255859375,-72.0654296875,-72.6318359375
45.1901579,-65.6982421875,-72.4072265625,-75.3662109375
45.2340843,-63.3056640625,-73.8720703125,-77.9052734375
45.2650227,-65.3564453125,-75.2880859375,-80.6884765625
45.2779831,-66.3818359375,-76.8505859375,-82.8857421875
45.3173843,-66.4306640625,-78.0224609375,-86.2548828125
45.3367833,-66.9189453125,-78.9013671875,-88.1591796875
45.3803076,-67.8955078125,-78.1689453125,-91.0400390625
45.399833,-69.2626953125,-75.8251953125,-93.2861328125
45.4371103,-70.8740234375,-74.7021484375,-89.3798828125
45.4624874,-72.6318359375,-71.7236328125,-80.5419921875
45.4994776,-73.9013671875,-68.9892578125,-69.7509765625
45.5205701,-75.4150390625,-66.1083984375,-59.3994140625
45.5613684,-77.0263671875,-63.0322265625,-50.6591796875
45.5825166,-78.1005859375,-61.5185546875,-44.5556640625
45.6178951,-79.7119140625,-60.2001953125,-38.4033203125
45.6410347,-80.5419921875,-59.3212890625,-36.2548828125
45.6814861,-81.9580078125,-58.9306640625,-37.2802734375
45.7024368,-82.6904296875,-58.4912109375,-39.8681640625
45.7391924,-83.8623046875,-58.4423828125,-42.4072265625
45.7615183,-85.0341796875,-57.8564453125,-44.7021484375
45.8030856,-86.5966796875,-58.5400390625,-46.1181640625
45.8268027,-87.6708984375,-59.8583984375,-48.3642578125
45.8627611,-88.8916015625,-61.0791015625,-50.3662109375
45.8848229,-89.6728515625,-60.8349609375,-53.6865234375
45.9234018,-89.9169921875,-61.9091796875,-56.4208984375
45.9501463,-84.7900390625,-62.4462890625,-58.7158203125
45.9742366,-79.9560546875,-64.4970703125,-61.7431640625
46.0107916,-74.7802734375,-65.4248046875,-64.3798828125
46.0339685,-72.2412109375,-67.3291015625,-66.8701171875
46.0739869,-67.7978515625,-67.0361328125,-69.3115234375
46.0932462,-64.9169921875,-68.6474609375,-72.7783203125
46.1369577,-62.3779296875,-70.7958984375,-75.1708984375
46.1570888,-62.3779296875,-71.5771484375,-77.4169921875
46.1935314,-63.1103515625,-73.5791015625,-80.1025390625
46.2148221,-64.0380859375,-75.0927734375,-81.9091796875
46.2633351,-64.6728515625,-76.2646484375,-84.3505859375
46.2744934,-65.2587890625,-77.1923828125,-86.5966796875
46.3135315,-66.7236328125,-76.9970703125,-89.1357421875
46.3346762,-68.0419921875,-74.8974609375,-90.1123046875
46.3871703,-69.3603515625,-73.5302734375,-84.6923828125
46.4067697,-71.3623046875,-71.5771484375,-74.5849609375
46.4246863,-72.7783203125,-69.1357421875,-62.4755859375
46.4603816,-74.5849609375,-67.2314453125,-52.5146484375
46.4877703,-76.1474609375,-65.3759765625,-42.2119140625
46.5417839,-77.5146484375,-62.1533203125,-34.7412109375
46.545867,-79.0771484375,-62.0068359375,-29.3701171875
46.5835864,-80.7373046875,-61.7626953125,-26.3427734375
46.6064296,-82.3974609375,-61.5673828125,-28.3935546875
46.6437024,-83.4228515625,-61.3232421875,-31.6162109375
46.6636976,-84.9365234375,-61.5185546875,-32.5927734375
46.700529,-85.6689453125,-62.9833984375,-34.3994140625
46.7278823,-86.7431640625,-63.5205078125,-36.6455078125
46.774754,-88.1103515625,-64.3505859375,-38.9404296875
46.7887035,-89.5263671875,-65.1318359375,-41.1865234375
46.8272904,-90.5029296875,-66.2060546875,-43.5791015625
46.8475931,-89.3310546875,-66.8896484375,-46.9970703125
46.8834138,-84.4482421875,-68.5498046875,-49.8291015625
46.9060525,-78.8818359375,-70.0146484375,-52.1240234375
46.941032,-74.6337890625,-71.3818359375,-54.2724609375
46.9693939,-71.3623046875,-72.3583984375,-56.8603515625
46.998586,-67.1630859375,-74.4091796875,-59.3017578125
47.0355989,-63.5986328125,-74.9951171875,-60.8642578125
47.0589609,-61.3525390625,-76.5576171875,-63.5986328125
47.0883608,-60.8642578125,-78.6083984375,-65.3076171875
47.1221097,-61.8896484375,-80.4638671875,-67.4560546875
47.149921,-62.3779296875,-81.4892578125,-69.4091796875
47.1791882,-62.6220703125,-83.0517578125,-71.1181640625
47.2114003,-64.3798828125,-83.7353515625,-73.5107421875
47.2429762,-65.6982421875,-82.7099609375,-75.6103515625
47.2717988,-67.4072265625,-80.0732421875,-75.2197265625
47.3022937,-68.7744140625,-79.2431640625,-67.7001953125
47.3293956,-70.5322265625,-76.6064453125,-56.4697265625
47.3809375,-72.0458984375,-74.7509765625,-43.6767578125
47.4021696,-74.0966796875,-72.9931640625,-33.0810546875
47.4460726,-75.5126953125,-70.5029296875,-26.4892578125
47.4523349,-76.8798828125,-69.0380859375,-20.5322265625
47.4795406,-78.3935546875,-68.5009765625,-16.9677734375
47.5115134,-78.8818359375,-68.0615234375,-17.2119140625
47.560342,-80.2978515625,-67.9150390625,-20.5810546875
47.5802849,-82.3486328125,-67.6708984375,-23.0712890625
47.6049464,-83.4716796875,-67.8662109375,-24.3896484375
47.6332933,-84.8876953125,-68.5986328125,-26.8798828125
47.6649095,-86.5478515625,-68.9404296875,-28.9306640625
47.6952443,-87.4755859375,-69.9658203125,-32.3974609375
47.7386812,-88.8427734375,-70.2587890625,-34.8876953125
47.7590542,-89.3798828125,-71.3330078125,-37.9638671875
47.8030849,-88.9404296875,-71.6748046875,-40.5517578125
47.822163,-84.7412109375,-72.7490234375,-43.8720703125
47.8583497,-78.9794921875,-73.1396484375,-46.7041015625
47.8795161,-74.8291015625,-75.3369140625,-49.2431640625
47.9054204,-71.4111328125,-76.5576171875,-51.9775390625
47.9356386,-67.6025390625,-77.4365234375,-54.6142578125
47.9808039,-64.9658203125,-79.1455078125,-57.4462890625
48.0018715,-62.5244140625,-79.8779296875,-59.6435546875
48.0531064,-61.3037109375,-80.8544921875,-62.3291015625
48.0734582,-63.1103515625,-82.6123046875,-65.7470703125
48.088603,-64.0380859375,-83.5400390625,-67.4072265625
48.1318945,-64.2333984375,-83.1982421875,-70.4833984375
48.1522134,-65.7958984375,-82.2216796875,-72.1923828125
48.1893376,-66.5771484375,-80.4638671875,-72.1435546875
48.2095138,-68.1884765625,-79.1943359375,-65.6494140625
48.24474,-70.0927734375,-76.4599609375,-53.8818359375
48.2690146,-71.8017578125,-73.9697265625,-42.5537109375
48.3136008,-73.8525390625,-71.0400390625,-32.0556640625
48.3357823,-74.9755859375,-68.9404296875,-24.7314453125
48.3730217,-76.9775390625,-68.0615234375,-18.6767578125
48.3940533,-78.2470703125,-67.0361328125,-15.2587890625
48.4302792,-79.3212890625,-65.9619140625,-14.7216796875
48.4514531,-80.8837890625,-66.1572265625,-18.2373046875
48.4876465,-81.9580078125,-65.7177734375,-21.7529296875
48.5086715,-83.1787109375,-65.1318359375,-23.6083984375
48.5503893,-84.1552734375,-66.0595703125,-25.3173828125
48.5704534,-85.5712890625,-65.7666015625,-28.2958984375
48.6077583,-86.9384765625,-66.2060546875,-30.6884765625
48.6277641,-88.2080078125,-67.2314453125,-33.7646484375
48.6744107,-89.1357421875,-67.7197265625,-36.9873046875
48.6941062,-90.0634765625,-69.0869140625,-40.1123046875
48.730638,-88.5986328125,-69.6240234375,-43.3837890625
48.7529774,-83.8623046875,-70.1611328125,-46.1669921875
48.7910765,-78.9306640625,-71.1376953125,-49.0966796875
48.8101266,-74.4873046875,-72.7490234375,-51.6845703125
48.8494996,-70.8251953125,-74.0185546875,-54.6630859375
48.8695127,-67.5537109375,-74.9951171875,-56.7138671875
48.915523,-64.4287109375,-76.6064453125,-59.1064453125
48.9346297,-62.1337890625,-77.8271484375,-61.4013671875
48.9739502,-63.2568359375,-78.1689453125,-63.8916015625
48.9963065,-64.5751953125,-79.2919921875,-66.1865234375
49.0344179,-63.9404296875,-79.6337890625,-69.7998046875
49.0554058,-64.4287109375,-78.2666015625,-71.2158203125
49.0914753,-65.6494140625,-76.8994140625,-70.5810546875
49.1150639,-67.0654296875,-74.1650390625,-61.4501953125
49.1525599,-68.6279296875,-71.5771484375,-49.5361328125
49.172734,-69.8486328125,-69.9169921875,-37.0849609375
49.2115773,-71.5576171875,-68.2080078125,-26.7333984375
49.2318281,-72.8271484375,-66.0595703125,-18.0419921875
49.2691794,-74.1943359375,-65.3759765625,-12.3291015625
49.2894475,-75.7568359375,-63.4228515625,-9.1064453125
49.3283418,-77.7099609375,-63.9111328125,-9.7900390625
49.3503874,-79.4189453125,-63.9111328125,-12.5732421875
49.3885777,-80.3466796875,-63.9111328125,-15.5029296875
49.4151407,-81.2744140625,-64.4482421875,-17.3583984375
49.4610881,-83.1787109375,-65.6201171875,-18.6767578125
49.4906285,-84.4482421875,-67.3291015625,-21.1181640625
49.5035949,-85.9619140625,-67.4267578125,-23.4619140625
49.539338,-87.1826171875,-67.7685546875,-25.7568359375
49.5648326,-88.5498046875,-68.8427734375,-28.4912109375
49.6181538,-89.3798828125,-69.8193359375,-30.8349609375
49.638288,-89.0380859375,-70.6982421875,-34.1552734375
49.6562932,-84.2041015625,-72.9443359375,-36.6943359375
49.6950598,-79.4189453125,-73.4814453125,-39.7705078125
49.715392,-74.7314453125,-75.0439453125,-41.4794921875
49.7548882,-71.0693359375,-76.3134765625,-43.7255859375
49.7762372,-67.7978515625,-78.1201171875,-47.2900390625
49.8135795,-64.2822265625,-79.1455078125,-49.2919921875
49.8359005,-61.3037109375,-81.7822265625,-51.5869140625
49.8737885,-60.8154296875,-82.2705078125,-53.9306640625
49.8971692,-62.0849609375,-83.4912109375,-56.7626953125
49.936057,-62.1337890625,-84.3701171875,-58.7158203125
49.9550375,-62.7685546875,-82.4658203125,-60.8154296875
49.9939953,-63.5986328125,-80.6591796875,-60.0341796875
50.0162772,-64.7216796875,-79.1943359375,-50.5126953125
50.0589056,-66.3818359375,-77.0947265625,-37.0361328125
50.0776987,-67.7490234375,-74.6533203125,-24.9267578125
50.1137497,-69.1650390625,-72.0166015625,-15.4541015625
50.1348169,-70.9716796875,-70.4052734375,-7.4462890625
50.1749849,-72.8271484375,-69.3798828125,-2.1240234375
50.1956089,-74.3408203125,-68.6962890625,0.7568359375
50.232588,-76.0009765625,-68.5986328125,-0.7080078125
50.2572588,-77.2705078125,-67.5732421875,-3.8330078125
50.297052,-78.5400390625,-67.8662109375,-7.5927734375
50.3181353,-79.5654296875,-68.4521484375,-9.3994140625
50.3565596,-81.1279296875,-68.7939453125,-11.4990234375
50.3803844,-82.3974609375,-70.4052734375,-14.1845703125
50.4190172,-83.9111328125,-70.3076171875,-16.4306640625
50.4386211,-84.9853515625,-71.1865234375,-19.6533203125
50.4740944,-86.7431640625,-71.8701171875,-21.8017578125
50.5002521,-87.3779296875,-72.8466796875,-24.4384765625
50.5370294,-87.0849609375,-73.6767578125,-27.3193359375
50.5604144,-82.6416015625,-74.4091796875,-30.1513671875
50.5995653,-77.7099609375,-75.7763671875,-32.4462890625
50.6196434,-72.2412109375,-76.9482421875,-34.9853515625
50.6582578,-69.1162109375,-78.7548828125,-37.3291015625
50.6804525,-65.8935546875,-79.0966796875,-40.1611328125
50.7191376,-62.6708984375,-80.8056640625,-42.2607421875
50.7385957,-59.6923828125,-81.5869140625,-45.0927734375
50.7913777,-59.3994140625,-82.4169921875,-47.9736328125
50.8225909,-61.7919921875,-83.5888671875,-50.2685546875
50.8308932,-62.3291015625,-81.7333984375,-53.2958984375
50.8676158,-63.0126953125,-79.8779296875,-53.5400390625
50.8919333,-64.0380859375,-77.8759765625,-47.0458984375
50.930762,-65.9912109375,-75.0439453125,-34.7412109375
50.9531669,-68.1396484375,-72.7978515625,-21.6552734375
50.993372,-70.2392578125,-70.6494140625,-11.7431640625
51.0116597,-71.9482421875,-69.0869140625,-4.5654296875
51.0487368,-73.7548828125,-67.8173828125,-0.1708984375
51.0723241,-76.0498046875,-66.5966796875,3.3935546875
51.1129237,-77.5634765625,-66.2548828125,2.5634765625
51.1331689,-78.8330078125,-65.6201171875,-1.4892578125
51.1699024,-80.3466796875,-65.7666015625,-5.9814453125
51.1916776,-82.0068359375,-65.6689453125,-7.7880859375
51.2299774,-83.7646484375,-66.1572265625,-9.4970703125
51.2511423,-84.6435546875,-66.7431640625,-11.8408203125
51.2892921,-85.9619140625,-67.1826171875,-15.0146484375
51.3130628,-87.4755859375,-68.0126953125,-18.0908203125
51.351744,-89.0380859375,-69.8193359375,-20.3857421875
51.3722798,-90.4541015625,-70.0634765625,-23.6572265625
51.4102136,-90.8447265625,-71.2353515625,-26.7822265625
51.4336221,-91.6259765625,-72.5537109375,-29.4189453125
51.4703419,-87.0849609375,-72.7978515625,-31.2744140625
51.494063,-81.8603515625,-74.6044921875,-34.6923828125
51.5319239,-77.3681640625,-76.1181640625,-37.1337890625
51.5564475,-73.6572265625,-77.0458984375,-39.4775390625
51.5958757,-70.7275390625,-77.5830078125,-41.3818359375
51.6170524,-66.8701171875,-79.5849609375,-43.8720703125
51.6552477,-64.5263671875,-80.1220703125,-46.3623046875
51.6744387,-63.8916015625,-81.0009765625,-48.7060546875
51.7120279,-65.3564453125,-79.7314453125,-51.3427734375
51.7342462,-66.0400390625,-78.4130859375,-52.1728515625
51.7723653,-66.2353515625,-75.9228515625,-46.6064453125
51.7976382,-67.5537109375,-74.4091796875,-34.0087890625
51.8275096,-68.5302734375,-71.3818359375,-19.4580078125
51.856531,-70.1904296875,-68.7451171875,-8.2763671875
51.8927963,-71.4111328125,-66.4501953125,0.2197265625
51.9173402,-73.1201171875,-65.7177734375,6.7626953125
51.9479231,-75.3173828125,-64.6435546875,10.6201171875
51.9936721,-76.1962890625,-63.6669921875,11.3037109375
52.0072035,-77.9052734375,-62.7880859375,7.7880859375
52.0408948,-79.1748046875,-62.0556640625,4.1259765625
52.0688781,-80.5419921875,-62.1533203125,1.4404296875
52.0959749,-81.1279296875,-63.0810546875,-1.0498046875
52.1484408,-81.6650390625,-64.0576171875,-2.5634765625
52.1575979,-83.2763671875,-64.5458984375,-6.6162109375
52.1936913,-84.2041015625,-66.1572265625,-8.9111328125
52.2201512,-86.0595703125,-67.1337890625,-11.8896484375
52.2467699,-86.8896484375,-67.6220703125,-15.1123046875
52.2864051,-88.4033203125,-69.8193359375,-18.3837890625
52.3096398,-88.4521484375,-71.3818359375,-20.4345703125
52.3393826,-87.0361328125,-71.9189453125,-23.1201171875
52.3700739,-81.7138671875,-73.5791015625,-25.8056640625
52.4007555,-77.0751953125,-75.5322265625,-27.9052734375
52.4283805,-73.5107421875,-76.4111328125,-30.9326171875
52.4772055,-70.5322265625,-78.3154296875,-33.2275390625
52.4892933,-66.7236328125,-80.1220703125,-35.1318359375
52.5388234,-65.3076171875,-81.2939453125,-37.5244140625
52.553043,-63.5498046875,-82.8076171875,-39.8681640625
