Timestamp,PPG_Forehead,PPG_Earlobe,PPG_Finger
0.00249999999999995,0.185546875,0.185546875,0.185546875
0.0035921000000001,0.185546875,0.185546875,0.185546875
0.00449110000000008,0.185546875,0.185546875,0.185546875
0.00534040000000013,0.185546875,0.185546875,0.185546875
0.00618860000000021,0.185546875,0.185546875,0.185546875
0.00700220000000007,0.185546875,0.185546875,0.185546875
0.00745059999999986,92.3193359375,85.4345703125,83.0908203125
0.00776049999999984,-97.1435546875,-35.6298828125,-38.6962890625
0.00805740000000021,-98.1689453125,-36.0205078125,-43.3349609375
0.00835410000000003,-99.5849609375,-36.1181640625,-48.9501953125
0.00865550000000015,-100.7568359375,-37.8271484375,-53.0029296875
0.00894709999999987,-101.3916015625,-38.1689453125,-57.8369140625
0.00923870000000004,-102.7099609375,-38.3642578125,-61.6943359375
0.00953340000000003,-103.3935546875,-39.1943359375,-65.0634765625
0.00982430000000001,-103.9794921875,-39.5361328125,-66.0888671875
0.0101315999999998,-105.0537109375,-40.5126953125,-67.6513671875
0.0104549,-106.0302734375,-41.6357421875,-69.2626953125
0.0107955,-106.6162109375,-41.4404296875,-71.9970703125
0.0110974000000001,-107.8857421875,-42.2216796875,-77.0263671875
0.0113878000000001,-108.8134765625,-43.0029296875,-81.3232421875
0.0116789000000002,-109.7412109375,-42.6611328125,-83.3251953125
0.0119695000000002,-108.9111328125,-41.8310546875,-66.4306640625
0.0122669000000002,-107.0068359375,-39.4873046875,-24.3896484375
0.0125571,-103.2958984375,-38.6083984375,0.3173828125
0.0128474000000001,-101.0009765625,-37.8759765625,10.9619140625
0.0131361000000001,-98.5107421875,-36.4111328125,14.8193359375
0.0134300999999999,-96.8994140625,-35.7275390625,15.4052734375
0.0137231999999998,-94.6044921875,-34.1162109375,11.6943359375
0.0140145999999999,-94.0185546875,-34.3603515625,3.3447265625
0.0143091000000002,-94.4580078125,-33.5791015625,-9.2041015625
0.0146035000000002,-94.7998046875,-32.7490234375,-20.0927734375
0.0148953999999999,-94.2626953125,-31.9189453125,-24.7802734375
0.0151881999999999,-94.3603515625,-32.6025390625,-24.5849609375
0.0154846000000002,-94.3115234375,-31.9189453125,-26.4404296875
0.0157802999999999,-94.8486328125,-32.7490234375,-27.0751953125
0.0160733999999998,-95.5322265625,-33.2373046875,-29.2236328125
0.0163654000000002,-96.4111328125,-33.4326171875,-33.3740234375
0.0166580000000001,-97.6806640625,-33.6279296875,-37.5244140625
0.0169510000000002,-99.0478515625,-34.6044921875,-42.5048828125
0.0172443000000002,-98.7060546875,-34.8486328125,-47.1435546875
0.0175399000000001,-100.4150390625,-35.1904296875,-52.0751953125
0.0178343000000001,-101.0498046875,-35.5322265625,-56.4697265625
0.0181271999999999,-102.4658203125,-36.0205078125,-59.8388671875
0.0184220000000002,-103.2470703125,-37.2900390625,-62.9150390625
0.0187176999999998,-103.7353515625,-37.7294921875,-64.4287109375
0.019012,-104.9560546875,-38.2177734375,-65.5029296875
0.0193069000000001,-105.6884765625,-39.0966796875,-67.0166015625
0.0196041,-106.9091796875,-39.6826171875,-70.1904296875
0.0198966,-108.0810546875,-41.0009765625,-75.3173828125
0.0201883999999999,-109.3505859375,-41.3427734375,-79.6630859375
0.0204868,-109.8876953125,-40.3662109375,-82.1533203125
0.0207792000000002,-109.1552734375,-39.7314453125,-68.5791015625
0.0210759999999999,-107.6416015625,-37.9248046875,-28.4912109375
0.0213676,-105.4443359375,-36.2646484375,-1.6357421875
0.0216677999999999,-102.0751953125,-35.2392578125,8.9599609375
0.0219678999999999,-99.6826171875,-33.8232421875,13.1591796875
0.0222627000000002,-98.0712890625,-33.1884765625,13.1103515625
0.0296989999999999,-96.2646484375,-32.4560546875,10.0341796875
0.030071,-95.0439453125,-32.1142578125,1.6357421875
0.0304929,-95.2880859375,-31.4794921875,-12.3779296875
0.0309054,-96.4599609375,-31.5283203125,-24.2431640625
0.0313840999999999,-96.4599609375,-31.1865234375,-29.0283203125
0.0318653000000002,-95.5810546875,-30.6494140625,-28.9306640625
0.0324346000000002,-95.6787109375,-31.2353515625,-28.9794921875
0.0329554000000001,-96.2646484375,-31.6259765625,-30.5419921875
0.0334848000000001,-97.3388671875,-31.3330078125,-32.2509765625
0.0340117000000002,-98.0712890625,-31.8212890625,-36.5966796875
0.0343654,-99.1455078125,-32.2119140625,-40.2099609375
0.0346636,-100.1220703125,-33.1884765625,-44.7021484375
0.0349574000000001,-100.4638671875,-33.3837890625,-50.4638671875
0.0352500999999998,-101.1474609375,-33.9208984375,-54.0283203125
0.0356296999999999,-102.5634765625,-34.6533203125,-58.8134765625
0.0359284999999998,-103.3447265625,-34.9951171875,-62.0361328125
0.0362201,-104.5654296875,-36.6064453125,-65.1123046875
0.0432378,-105.6884765625,-36.6064453125,-66.5283203125
0.0437303,-105.8837890625,-37.4853515625,-67.7001953125
0.0441815000000001,-106.9091796875,-37.6806640625,-69.6044921875
0.0446781999999999,-108.1787109375,-38.4619140625,-73.4619140625
0.0451461000000002,-109.1552734375,-39.6337890625,-78.2958984375
0.0455937,-110.0341796875,-40.9033203125,-82.2998046875
0.0459649999999998,-110.8642578125,-39.7802734375,-82.6904296875
0.0463174999999998,-110.1318359375,-37.7294921875,-58.4228515625
0.0466677999999998,-107.8369140625,-35.9716796875,-18.7255859375
0.0470373999999998,-104.6630859375,-34.7509765625,1.3916015625
0.0473892999999999,-102.2705078125,-34.2138671875,9.4970703125
0.0477392999999999,-99.9755859375,-32.8466796875,11.9384765625
0.0481628000000001,-98.2177734375,-31.2353515625,10.4736328125
0.0485148,-96.7529296875,-31.4794921875,6.5185546875
0.0488577000000001,-95.7763671875,-31.6259765625,-4.2724609375
0.0491733999999999,-95.9716796875,-30.7470703125,-17.5537109375
0.0494734999999999,-96.0205078125,-29.5751953125,-27.6123046875
0.0497668999999998,-95.9716796875,-30.2587890625,-29.7119140625
0.0500590000000001,-95.5810546875,-30.3564453125,-30.1025390625
0.0503518000000001,-96.1669921875,-29.5263671875,-31.0302734375
0.0506438999999999,-96.1181640625,-30.5029296875,-32.7392578125
0.0509344999999999,-96.6064453125,-30.9912109375,-35.0341796875
0.0512277000000001,-97.2900390625,-31.7236328125,-39.0380859375
0.0515469999999998,-98.2666015625,-32.9443359375,-43.5791015625
0.0518361000000001,-99.7314453125,-33.1884765625,-48.4619140625
0.0521337000000002,-100.3173828125,-33.7255859375,-53.5888671875
0.0524388,-101.4892578125,-34.4091796875,-58.1787109375
0.0527326000000001,-102.4169921875,-35.1904296875,-62.4267578125
0.0530241,-103.4423828125,-35.5810546875,-66.2841796875
0.0533142999999998,-104.0771484375,-35.9716796875,-68.1396484375
0.0536311999999999,-105.2978515625,-36.7041015625,-70.2880859375
0.0593721999999999,-105.8837890625,-37.4853515625,-71.7529296875
0.100797,-106.6650390625,-38.8037109375,-73.2666015625
0.1211497,-108.1298828125,-39.8291015625,-77.9541015625
0.1615455,-109.6923828125,-40.3662109375,-82.5439453125
0.181765,-110.6689453125,-40.8544921875,-86.2060546875
0.2185031,-111.3037109375,-40.7080078125,-86.0107421875
0.237852,-111.0107421875,-38.9013671875,-57.7880859375
0.2819174,-108.0810546875,-36.8994140625,-17.1142578125
0.302019,-105.1513671875,-36.1181640625,0.7080078125
0.339774,-102.3681640625,-34.7998046875,8.8134765625
0.3602928,-100.3173828125,-33.5302734375,11.5966796875
0.4008921,-98.5107421875,-32.4072265625,10.4248046875
0.4211087,-96.0693359375,-31.9189453125,6.1279296875
0.4615385,-94.7021484375,-31.4794921875,-5.3955078125
0.4819632,-95.7763671875,-30.9423828125,-18.2861328125
0.5229524,-95.5810546875,-31.1376953125,-27.7587890625
0.5420964,-95.6298828125,-30.7470703125,-30.3466796875
0.5845434,-95.0927734375,-31.3330078125,-30.1025390625
0.6046379,-95.6298828125,-31.4306640625,-30.4931640625
0.6412979,-96.2646484375,-31.6259765625,-33.1298828125
0.669603,-96.3623046875,-32.6513671875,-35.1318359375
0.7056142,-97.4365234375,-32.8466796875,-39.8681640625
0.7279762,-98.4130859375,-34.2138671875,-43.4814453125
0.7685579,-99.8779296875,-34.4091796875,-48.4619140625
0.7885467,-100.0244140625,-34.7509765625,-53.6376953125
0.8095665,-101.4404296875,-35.5810546875,-58.1298828125
0.8408214,-101.6845703125,-36.8017578125,-61.7919921875
0.892001,-103.1005859375,-37.0458984375,-65.5517578125
0.9113832,-103.7841796875,-37.6806640625,-67.0654296875
0.9298041,-104.9072265625,-38.1689453125,-68.9208984375
0.9621088,-105.8349609375,-39.0478515625,-70.2392578125
1.002612,-106.4208984375,-40.3662109375,-72.4853515625
1.0237338,-107.4951171875,-41.2939453125,-76.3916015625
1.0625416,-108.3251953125,-41.2939453125,-80.8349609375
1.0828468,-109.7900390625,-41.9287109375,-85.6689453125
1.1271726,-110.8642578125,-42.1728515625,-85.8154296875
1.1462936,-110.4736328125,-40.3173828125,-63.2080078125
1.1895395,-108.3251953125,-38.0712890625,-22.7294921875
1.2091196,-106.3720703125,-37.4853515625,-1.6357421875
1.244374,-102.8564453125,-36.8017578125,6.9580078125
1.2648294,-100.7080078125,-36.0205078125,9.6435546875
1.3079179,-99.0478515625,-34.8486328125,9.0087890625
1.3279839,-97.2900390625,-34.1650390625,5.0048828125
1.3651106,-96.0693359375,-34.5556640625,-4.7119140625
1.3868092,-96.2158203125,-33.9697265625,-18.0419921875
1.424653,-96.3134765625,-34.1162109375,-28.1494140625
1.4448158,-96.5087890625,-34.1162109375,-30.7373046875
1.5006002,-95.9716796875,-33.1396484375,-30.5908203125
1.5320571,-96.0205078125,-34.0673828125,-31.3232421875
1.5329817,-96.4111328125,-34.0673828125,-33.3251953125
1.5816887,-97.1435546875,-34.9951171875,-35.5224609375
1.6094781,-98.5107421875,-35.7763671875,-39.0869140625
1.6286409,-99.1455078125,-35.7763671875,-43.9697265625
1.6709369,-99.4873046875,-36.1181640625,-48.2177734375
1.6915449,-101.3916015625,-37.1923828125,-53.7841796875
1.7308205,-101.3427734375,-37.9736328125,-58.0810546875
1.7648394,-102.4658203125,-37.8271484375,-61.6943359375
1.7786127,-104.4189453125,-39.3408203125,-65.3076171875
1.8242498,-105.9326171875,-40.1220703125,-66.5771484375
1.8578199,-106.3720703125,-41.1962890625,-68.1396484375
1.8688142,-106.7138671875,-41.6357421875,-69.0673828125
1.9108253,-108.4228515625,-42.4169921875,-71.9482421875
1.9311344,-109.5458984375,-43.3447265625,-75.8056640625
1.9677587,-110.8154296875,-43.5888671875,-80.4931640625
1.9883566,-112.2314453125,-43.8330078125,-84.4482421875
2.0295959,-112.6708984375,-43.4912109375,-81.0791015625
2.0510347,-112.5244140625,-41.7333984375,-49.0478515625
2.0889145,-110.5224609375,-40.4638671875,-13.6474609375
2.110719,-108.0322265625,-39.0478515625,1.4404296875
2.1498066,-105.6884765625,-39.2431640625,7.8857421875
2.169982,-103.4423828125,-37.8759765625,9.7900390625
2.2167085,-101.0498046875,-36.7041015625,8.2275390625
2.2381972,-99.5361328125,-36.3623046875,3.3935546875
2.2563934,-98.0712890625,-36.8017578125,-8.3740234375
2.2903228,-98.8037109375,-36.7529296875,-21.4599609375
2.3439971,-99.3408203125,-35.7275390625,-28.9794921875
2.3641768,-99.7314453125,-36.5576171875,-30.7861328125
2.3791616,-100.1708984375,-35.2880859375,-31.3720703125
2.4222102,-99.6337890625,-37.2900390625,-32.3974609375
2.4437769,-100.7080078125,-37.2900390625,-34.6923828125
2.4795086,-100.6103515625,-37.3388671875,-37.8662109375
2.4996972,-101.8798828125,-38.0712890625,-41.0888671875
2.5412964,-102.7587890625,-38.5107421875,-46.3623046875
2.5624888,-104.6630859375,-39.4384765625,-51.2939453125
2.6049073,-105.2490234375,-39.9755859375,-55.9326171875
2.6249506,-106.8603515625,-40.8544921875,-60.7177734375
2.6725227,-107.3486328125,-41.3427734375,-65.3076171875
2.6933672,-108.6669921875,-42.2705078125,-67.7001953125
2.711512,-109.4970703125,-42.3193359375,-71.0693359375
2.7650651,-110.2294921875,-43.3447265625,-72.0947265625
2.7736442,-111.6455078125,-43.8818359375,-73.4130859375
2.8146646,-112.2802734375,-45.1025390625,-75.5615234375
2.8317223,-113.3056640625,-45.6396484375,-80.0048828125
2.865457,-114.9658203125,-45.9326171875,-84.6923828125
2.9052885,-116.0400390625,-46.1767578125,-89.0380859375
2.9274852,-117.3095703125,-45.2001953125,-88.4033203125
2.953949,-117.8955078125,-43.8818359375,-58.9111328125
2.982372,-115.1123046875,-43.1494140625,-18.6279296875
3.0251902,-112.2802734375,-41.2451171875,-0.7568359375
3.0447764,-109.8388671875,-41.5380859375,7.4951171875
3.071614,-107.1044921875,-40.3173828125,10.2294921875
3.112623,-105.8349609375,-39.2919921875,9.3505859375
3.1317538,-103.2958984375,-39.2919921875,5.0537109375
3.1751516,-101.1474609375,-38.2666015625,-5.9326171875
3.1973026,-101.1962890625,-38.1689453125,-19.0673828125
3.2364764,-101.5869140625,-37.9248046875,-27.2216796875
3.2536963,-102.2216796875,-38.0712890625,-29.5654296875
3.2849699,-101.5869140625,-38.5107421875,-30.0048828125
3.3252804,-101.2939453125,-38.1689453125,-30.9814453125
3.3420859,-101.2451171875,-38.3642578125,-33.6669921875
3.3861896,-102.1240234375,-38.7548828125,-36.3525390625
3.4034357,-103.1005859375,-39.0478515625,-40.0146484375
3.4463262,-103.6376953125,-38.6572265625,-44.7998046875
3.4655884,-104.8095703125,-40.5126953125,-50.0244140625
3.5070403,-105.7861328125,-40.1220703125,-54.7607421875
3.5264409,-107.0556640625,-41.1474609375,-59.5458984375
3.5559081,-108.4228515625,-41.6845703125,-63.4521484375
3.5846815,-109.2529296875,-42.2705078125,-67.1630859375
3.6180918,-109.8876953125,-43.1494140625,-70.1904296875
3.6469461,-111.0107421875,-43.4423828125,-71.7041015625
3.6847702,-111.9384765625,-43.9306640625,-73.4619140625
3.707517,-112.8173828125,-45.4443359375,-75.3173828125
3.7366783,-114.0869140625,-46.1279296875,-78.9306640625
3.7646932,-114.6728515625,-46.1279296875,-83.6181640625
3.7979858,-116.9677734375,-46.9091796875,-88.2080078125
3.8265304,-117.6513671875,-47.2509765625,-90.2099609375
3.8598536,-118.8232421875,-45.4931640625,-78.4912109375
3.8886362,-117.7490234375,-43.6865234375,-36.7919921875
3.9146863,-115.7470703125,-42.7099609375,-8.5693359375
3.9508122,-112.9638671875,-42.1728515625,3.8818359375
3.9779761,-110.2783203125,-40.6591796875,8.3740234375
4.0109576,-107.4951171875,-39.4384765625,8.9599609375
4.0384049,-105.2978515625,-39.5361328125,6.0791015625
4.068381,-103.7353515625,-39.4384765625,-1.5380859375
4.0959991,-103.2470703125,-38.7548828125,-15.1611328125
4.1308571,-103.2470703125,-38.6083984375,-28.5400390625
4.1587006,-103.9306640625,-38.0224609375,-34.0576171875
4.1909923,-103.7841796875,-37.8271484375,-33.8623046875
4.218015,-103.6865234375,-38.0224609375,-33.4716796875
4.2500023,-103.6865234375,-37.4853515625,-35.2783203125
4.281747,-103.4423828125,-38.5107421875,-38.1103515625
4.3088519,-104.2724609375,-38.7060546875,-40.6005859375
4.3420605,-105.5419921875,-39.4873046875,-45.0439453125
4.3713498,-106.2744140625,-39.9267578125,-49.8779296875
4.4010933,-107.1533203125,-40.3662109375,-54.8095703125
4.4299062,-107.6904296875,-41.0986328125,-59.2041015625
4.4596141,-109.3505859375,-41.3427734375,-64.1357421875
4.489598,-109.9853515625,-42.2216796875,-67.8955078125
4.5225622,-111.4501953125,-42.6123046875,-71.0693359375
4.5530079,-112.4267578125,-43.3935546875,-73.4130859375
4.5814881,-112.9638671875,-43.2470703125,-74.3896484375
4.612609,-114.2333984375,-44.7119140625,-76.1962890625
4.6425149,-115.2099609375,-44.4189453125,-78.3447265625
4.6715737,-116.5771484375,-46.0302734375,-82.3486328125
4.7027545,-117.3095703125,-46.4697265625,-87.2802734375
4.7322045,-118.8232421875,-47.6416015625,-91.1865234375
4.7649765,-119.7509765625,-45.9326171875,-90.2099609375
4.8102916,-120.1904296875,-44.3701171875,-60.3271484375
4.8315749,-119.1162109375,-43.0517578125,-21.9482421875
4.8694144,-116.7724609375,-42.7099609375,-3.9794921875
4.8886314,-113.9892578125,-41.3916015625,2.9052734375
4.9327673,-111.2548828125,-40.5126953125,6.1279296875
4.9449261,-108.4716796875,-39.1943359375,4.7607421875
4.9889119,-106.5673828125,-39.0966796875,-0.6103515625
5.0087127,-104.9560546875,-38.9013671875,-12.1337890625
5.0497394,-103.6865234375,-38.4619140625,-24.4384765625
5.0721463,-104.4189453125,-37.8271484375,-32.3486328125
5.1100121,-104.0283203125,-37.9248046875,-34.8876953125
5.1299185,-103.8818359375,-37.4853515625,-35.1318359375
5.1525931,-104.4677734375,-38.5107421875,-36.0595703125
5.2085692,-103.9306640625,-37.8271484375,-38.6474609375
5.2308482,-104.5166015625,-38.2666015625,-41.6259765625
5.2427243,-105.4931640625,-38.7060546875,-45.4833984375
5.3010971,-106.1279296875,-39.1455078125,-49.6826171875
5.3214721,-107.2021484375,-39.1943359375,-54.8583984375
5.3340006,-107.6904296875,-40.3662109375,-59.6923828125
5.3833889,-108.5205078125,-40.7080078125,-64.2333984375
5.4118901,-109.7900390625,-41.7822265625,-67.3583984375
5.428413,-110.5224609375,-41.9775390625,-71.7529296875
5.4572121,-112.4267578125,-42.0751953125,-74.9267578125
5.4855888,-112.8662109375,-42.8564453125,-76.6845703125
5.5189658,-114.3798828125,-44.0283203125,-78.0517578125
5.5588826,-114.6240234375,-44.2236328125,-79.3212890625
5.5805797,-115.4052734375,-45.2490234375,-82.9833984375
5.6180907,-117.1630859375,-45.5419921875,-87.4755859375
5.6441111,-117.9931640625,-46.6650390625,-92.5048828125
5.6810737,-119.0673828125,-46.1279296875,-95.4345703125
5.7069252,-120.4833984375,-44.5166015625,-83.9599609375
5.7267583,-120.1416015625,-43.2958984375,-43.4814453125
5.7573863,-118.8232421875,-41.8310546875,-14.8193359375
5.8015746,-116.4794921875,-41.4404296875,-2.5634765625
5.831357,-113.5498046875,-40.2197265625,1.7822265625
5.849095,-110.4736328125,-38.6572265625,2.5634765625
5.8952581,-108.4228515625,-36.8017578125,-0.5615234375
5.9143446,-106.2744140625,-37.5830078125,-8.7158203125
5.9523394,-105.2978515625,-37.1435546875,-21.7041015625
5.9738673,-104.9560546875,-35.9228515625,-34.4970703125
6.0148613,-105.6884765625,-36.2646484375,-40.5029296875
6.0353407,-105.4931640625,-35.9228515625,-40.8447265625
6.0718684,-104.9560546875,-36.0205078125,-40.9423828125
6.0931251,-105.2978515625,-36.3623046875,-42.7978515625
6.1369617,-105.1025390625,-36.6552734375,-44.5068359375
6.1591167,-105.6396484375,-36.7529296875,-47.9248046875
6.1955418,-106.7626953125,-37.6318359375,-51.9287109375
6.2147532,-107.4951171875,-37.4365234375,-56.6162109375
6.252931,-108.9599609375,-38.7548828125,-61.6943359375
6.2745893,-110.1806640625,-38.8525390625,-66.5771484375
6.312408,-110.6201171875,-39.4384765625,-70.8740234375
6.3324025,-112.2802734375,-40.0244140625,-74.9755859375
6.3725127,-112.5732421875,-40.6591796875,-79.0771484375
6.3919916,-113.8916015625,-41.8798828125,-81.1767578125
6.4334513,-114.8681640625,-41.2939453125,-83.5693359375
6.453859,-115.8447265625,-41.6845703125,-84.6435546875
6.5068501,-116.7724609375,-43.3447265625,-87.3291015625
6.5369779,-117.3583984375,-44.0283203125,-91.0888671875
6.5399473,-118.2373046875,-44.7119140625,-95.3857421875
6.588601,-119.7509765625,-44.8583984375,-100.5126953125
6.610243,-121.3623046875,-43.8330078125,-101.9287109375
6.6500779,-122.0947265625,-42.3193359375,-81.3232421875
6.6714422,-122.3876953125,-40.3662109375,-37.0849609375
6.7079431,-120.3857421875,-39.3408203125,-13.5986328125
6.7294318,-116.9677734375,-37.8759765625,-3.9794921875
6.7668324,-113.6474609375,-36.8505859375,-1.0986328125
6.7883648,-111.3525390625,-35.8740234375,-1.8798828125
6.8388451,-109.3017578125,-34.8974609375,-5.5908203125
6.8692156,-107.0068359375,-34.5068359375,-15.0634765625
6.8723009,-105.0537109375,-34.0673828125,-27.8564453125
6.9181441,-105.2978515625,-33.6279296875,-38.4521484375
6.9496711,-105.8837890625,-32.7001953125,-41.9189453125
6.9645745,-106.1767578125,-32.3583984375,-42.7001953125
7.0124214,-105.1025390625,-32.9443359375,-43.4326171875
7.032567,-105.2978515625,-32.5048828125,-44.5068359375
7.0690219,-106.1279296875,-33.1396484375,-47.9248046875
7.0895551,-106.4208984375,-33.6767578125,-51.6357421875
7.126638,-106.5673828125,-34.6533203125,-55.7373046875
7.1479682,-108.1298828125,-34.9951171875,-60.6201171875
7.1897778,-108.9111328125,-35.2392578125,-65.3564453125
7.2100661,-110.4248046875,-35.4833984375,-70.4833984375
7.2485843,-110.7666015625,-36.6064453125,-75.4638671875
7.2690355,-111.4990234375,-37.0458984375,-78.4912109375
7.307688,-113.3056640625,-37.8759765625,-82.2509765625
7.3278094,-114.3798828125,-38.5107421875,-84.3994140625
7.3679607,-114.7216796875,-38.8037109375,-85.2783203125
7.3882713,-116.1376953125,-39.7802734375,-86.4990234375
7.4381945,-116.8212890625,-40.1708984375,-89.9658203125
7.4595783,-118.0908203125,-41.2451171875,-93.1396484375
7.4764456,-118.5791015625,-41.7333984375,-98.2177734375
7.5300252,-120.3369140625,-42.9052734375,-101.8310546875
7.550908,-121.6552734375,-42.1240234375,-102.2216796875
7.5670467,-121.8017578125,-39.0478515625,-74.4873046875
7.6089919,-121.8994140625,-38.1201171875,-33.1298828125
7.6290766,-120.0439453125,-37.0947265625,-13.7451171875
7.6767426,-117.0654296875,-36.2158203125,-6.5673828125
7.7071987,-113.6962890625,-33.7744140625,-4.4189453125
7.7154812,-111.4013671875,-33.0419921875,-5.7861328125
7.7635483,-108.2275390625,-32.7490234375,-11.0107421875
7.7849271,-106.9580078125,-32.6513671875,-21.8505859375
7.8215118,-105.2001953125,-31.8701171875,-35.7666015625
7.8430767,-105.3955078125,-31.2841796875,-44.6533203125
7.8863026,-106.1767578125,-30.9423828125,-46.1669921875
7.8959389,-106.0791015625,-31.5283203125,-47.0947265625
7.9422271,-106.3232421875,-31.3818359375,-47.2900390625
7.9639404,-105.9326171875,-31.6259765625,-49.3896484375
8.0042965,-106.0791015625,-31.8212890625,-52.7099609375
8.0235292,-106.7626953125,-32.8466796875,-55.7373046875
8.0652204,-107.0068359375,-32.8955078125,-59.9365234375
8.0822826,-108.2275390625,-33.6767578125,-64.7216796875
8.1249809,-109.3994140625,-34.6533203125,-69.1650390625
8.1388891,-110.2783203125,-35.3369140625,-74.0966796875
8.1825853,-111.0595703125,-35.4345703125,-78.2470703125
8.2061986,-111.9384765625,-36.1669921875,-81.8603515625
8.2559293,-113.3056640625,-36.4599609375,-84.3994140625
8.2875924,-114.1357421875,-37.8271484375,-86.2060546875
8.2909117,-115.2099609375,-38.2177734375,-87.7197265625
8.3348758,-115.5517578125,-38.9501953125,-89.8681640625
8.3527439,-116.3818359375,-39.3896484375,-92.2607421875
8.3948886,-117.5537109375,-40.3662109375,-96.8505859375
8.4150287,-118.8720703125,-40.8056640625,-101.2939453125
8.4550646,-120.6298828125,-40.0244140625,-104.1259765625
8.4708261,-121.2158203125,-38.9501953125,-89.3310546875
8.5130485,-121.8505859375,-36.7041015625,-48.1689453125
8.5344958,-121.1669921875,-35.7275390625,-20.0927734375
8.5763408,-118.0419921875,-34.6533203125,-9.5947265625
8.5957554,-115.2099609375,-34.0185546875,-6.0791015625
8.624437,-112.7685546875,-32.4560546875,-6.6650390625
8.6651221,-109.6435546875,-32.2119140625,-10.2294921875
8.6840529,-107.4951171875,-31.6748046875,-18.4326171875
8.7123324,-105.9326171875,-31.3330078125,-31.6162109375
8.756524,-105.2001953125,-31.1376953125,-42.5537109375
8.7742619,-105.3955078125,-30.2587890625,-47.6318359375
8.8031767,-105.0537109375,-30.6982421875,-47.8759765625
8.8362621,-105.2001953125,-31.3818359375,-48.3154296875
8.863717,-104.6630859375,-31.0888671875,-49.7314453125
8.8947151,-105.1513671875,-32.1630859375,-52.3681640625
8.9366517,-105.6396484375,-32.4072265625,-55.7373046875
8.9557408,-105.9326171875,-32.8466796875,-58.6669921875
8.9870553,-106.7138671875,-32.9931640625,-63.9892578125
9.0176917,-107.9345703125,-34.2626953125,-69.2138671875
9.0457358,-109.3505859375,-35.4345703125,-74.3408203125
9.0767723,-109.3505859375,-35.6787109375,-78.0517578125
9.1070162,-110.3271484375,-36.1669921875,-81.8603515625
9.1360569,-111.7431640625,-37.0947265625,-85.2294921875
9.1686777,-112.0849609375,-37.7783203125,-86.7919921875
9.1974316,-113.0126953125,-38.4619140625,-88.5986328125
9.2304959,-114.1357421875,-39.2919921875,-89.9658203125
9.2569299,-114.6728515625,-39.9755859375,-92.4072265625
9.2889912,-115.8447265625,-41.1474609375,-96.5087890625
9.3158079,-117.5048828125,-41.5380859375,-101.5380859375
9.3478472,-118.3837890625,-42.4169921875,-105.9326171875
9.3773618,-119.5068359375,-40.4150390625,-101.9287109375
9.4096254,-120.3369140625,-38.9013671875,-66.0888671875
9.4394387,-120.5810546875,-36.6552734375,-27.6123046875
9.4669112,-118.2861328125,-35.9228515625,-12.9150390625
9.4998202,-115.3564453125,-35.6298828125,-6.8115234375
9.5288226,-111.7431640625,-33.8232421875,-5.3466796875
9.5566642,-108.8134765625,-32.9931640625,-7.7392578125
9.5898231,-106.8115234375,-32.7001953125,-12.6708984375
9.6165828,-104.1748046875,-32.8466796875,-24.0966796875
9.6461432,-102.9052734375,-31.8701171875,-38.4521484375
9.6790373,-102.2705078125,-31.6259765625,-46.8994140625
9.7067224,-101.6845703125,-31.2841796875,-48.6083984375
9.7411137,-101.6845703125,-32.1142578125,-48.8037109375
9.7691091,-101.9775390625,-32.7490234375,-48.8037109375
9.7995478,-101.2939453125,-32.7001953125,-51.1474609375
9.8301857,-102.3193359375,-33.3837890625,-54.3212890625
9.8606751,-102.6123046875,-33.5791015625,-58.1298828125
9.8906273,-103.4912109375,-34.4091796875,-62.9638671875
9.9372586,-104.0771484375,-35.0927734375,-67.3095703125
9.9572504,-104.7119140625,-35.4833984375,-72.3388671875
9.9821465,-105.5908203125,-36.7529296875,-76.4404296875
10.0261453,-106.2255859375,-37.0458984375,-81.2744140625
10.0465419,-107.5439453125,-37.2900390625,-84.2041015625
10.0685671,-108.1787109375,-38.0224609375,-86.9873046875
10.1184738,-108.9111328125,-39.0478515625,-88.3056640625
10.1377773,-110.3271484375,-40.3662109375,-89.7705078125
10.180283,-110.9619140625,-40.9033203125,-91.6748046875
10.2025312,-111.6455078125,-41.9287109375,-94.8486328125
10.2519978,-112.8662109375,-43.1005859375,-99.9755859375
10.252986,-114.4775390625,-43.1494140625,-103.9794921875
10.2815346,-115.2099609375,-41.2451171875,-104.5166015625
10.3284295,-116.4306640625,-40.5126953125,-79.3701171875
10.3483895,-116.6748046875,-38.9990234375,-37.4755859375
10.3713882,-116.1865234375,-37.8759765625,-17.2119140625
10.4047557,-113.4521484375,-36.5576171875,-9.2529296875
10.4481063,-109.9853515625,-36.3623046875,-6.9091796875
10.4675675,-107.9833984375,-35.2392578125,-8.2763671875
10.5168699,-105.4443359375,-34.8486328125,-12.8662109375
10.5461214,-103.0517578125,-35.3369140625,-23.5107421875
10.5520661,-101.3427734375,-34.7509765625,-36.9873046875
10.5989861,-100.2197265625,-34.5556640625,-47.2412109375
10.6195501,-100.7080078125,-35.1416015625,-50.1220703125
10.6597891,-100.8056640625,-34.1162109375,-50.2685546875
10.6813047,-100.8544921875,-35.1416015625,-50.5615234375
10.7185999,-100.7080078125,-34.9951171875,-52.1728515625
10.7402497,-100.8544921875,-35.4833984375,-54.9560546875
10.7795462,-101.6357421875,-36.0693359375,-58.5693359375
10.8010905,-101.6845703125,-37.0458984375,-62.6220703125
10.8393945,-103.2470703125,-36.9482421875,-67.0654296875
10.8609151,-103.4912109375,-37.5830078125,-72.0947265625
10.8994496,-104.9072265625,-38.8037109375,-77.0263671875
10.9186246,-106.7626953125,-39.2431640625,-81.2744140625
10.9592933,-107.0556640625,-39.9755859375,-84.8388671875
10.9793766,-108.0322265625,-40.9521484375,-86.7919921875
11.0174082,-109.1552734375,-41.2451171875,-88.0615234375
11.0364358,-110.2294921875,-42.8076171875,-89.7705078125
11.0826026,-110.5712890625,-43.4912109375,-91.1865234375
11.1040951,-111.5966796875,-44.3701171875,-95.6298828125
11.1408691,-112.1826171875,-44.4677734375,-99.4384765625
11.1600777,-113.2080078125,-44.6630859375,-104.6630859375
11.1975588,-114.6728515625,-44.3212890625,-103.8818359375
11.2178339,-115.9912109375,-42.4169921875,-79.2724609375
11.2618469,-116.0888671875,-41.1474609375,-37.6708984375
11.2823877,-115.3564453125,-39.4384765625,-17.2119140625
11.3062762,-113.6474609375,-38.9990234375,-9.0087890625
11.3528872,-110.3271484375,-37.6806640625,-7.5439453125
11.3722221,-107.1533203125,-37.1923828125,-8.2763671875
11.4226675,-104.4677734375,-36.2646484375,-12.7197265625
11.4408185,-102.4169921875,-36.7041015625,-23.0712890625
11.4571125,-100.6591796875,-37.0458984375,-35.8154296875
11.5051584,-99.7802734375,-35.7763671875,-44.7021484375
11.5254241,-99.8291015625,-35.7275390625,-48.3154296875
11.5633087,-100.6103515625,-35.9228515625,-48.9501953125
11.5837644,-100.3173828125,-36.5576171875,-49.0966796875
11.6223065,-99.2919921875,-35.7763671875,-51.7333984375
11.6425555,-100.2685546875,-37.3876953125,-54.2724609375
11.6837901,-100.5615234375,-38.2177734375,-57.5439453125
11.7052229,-101.0009765625,-38.0712890625,-62.7197265625
11.7456049,-101.4892578125,-38.8037109375,-67.1630859375
11.7655931,-102.4169921875,-39.7314453125,-71.9970703125
11.8031296,-103.6865234375,-40.3662109375,-76.3916015625
11.8230429,-105.1513671875,-41.1962890625,-81.2744140625
11.8614153,-105.5419921875,-41.2451171875,-84.2529296875
11.8813512,-107.0556640625,-41.5869140625,-87.3779296875
11.9266865,-107.8857421875,-42.4169921875,-88.7939453125
11.9467065,-108.9599609375,-43.2958984375,-90.3076171875
11.9869392,-109.8388671875,-43.6865234375,-91.6748046875
12.0073367,-110.3271484375,-44.9560546875,-95.8740234375
12.0420281,-111.7431640625,-45.9814453125,-101.2939453125
12.0622158,-112.7197265625,-46.0791015625,-105.6884765625
12.1030664,-113.7451171875,-44.9072265625,-103.1005859375
12.1252071,-114.9658203125,-43.5400390625,-71.0205078125
12.1689025,-116.2841796875,-42.4169921875,-31.1279296875
12.1907145,-114.8193359375,-40.7080078125,-14.8193359375
12.2271056,-113.2080078125,-40.1708984375,-8.2763671875
12.248624,-109.7412109375,-39.4873046875,-6.0791015625
12.2998687,-106.6162109375,-37.9736328125,-6.7626953125
12.3214079,-104.5654296875,-38.3642578125,-13.1591796875
12.3337768,-102.2216796875,-38.1201171875,-25.1220703125
12.3750976,-99.7314453125,-38.0224609375,-39.5751953125
12.4103084,-98.5107421875,-37.2412109375,-50.8056640625
12.4243716,-99.3896484375,-36.8505859375,-52.0751953125
12.4716881,-99.6826171875,-37.4853515625,-50.7080078125
12.4918175,-99.4384765625,-37.6806640625,-51.0498046875
12.5280709,-98.6572265625,-38.6572265625,-52.6611328125
12.5514507,-99.1455078125,-38.6572265625,-55.6396484375
12.5880743,-100.2685546875,-38.5107421875,-59.1064453125
12.6137547,-100.9521484375,-39.6826171875,-63.4033203125
12.6323266,-101.6845703125,-39.9267578125,-67.7978515625
12.6670829,-102.2216796875,-40.4638671875,-72.9736328125
12.7087725,-103.5400390625,-41.4892578125,-77.1240234375
12.7289845,-103.9794921875,-42.6123046875,-81.4208984375
12.7685216,-105.4443359375,-42.7099609375,-84.8876953125
12.7906026,-106.8603515625,-43.4912109375,-86.6943359375
12.8319818,-107.2509765625,-44.3701171875,-88.0615234375
12.8519983,-108.7646484375,-44.9072265625,-90.0146484375
12.8916847,-108.7646484375,-45.9814453125,-92.4560546875
12.9119344,-110.2783203125,-46.5673828125,-96.9970703125
12.949593,-110.8154296875,-47.5927734375,-102.2705078125
12.9687306,-111.9873046875,-47.2998046875,-105.3955078125
13.0121565,-113.5009765625,-45.3955078125,-96.2158203125
13.0342247,-114.7216796875,-43.9306640625,-55.5419921875
13.0719181,-115.2587890625,-42.9052734375,-23.0712890625
13.0941465,-114.0869140625,-41.8310546875,-11.0107421875
13.1452872,-111.4501953125,-40.5126953125,-6.7138671875
13.1485271,-109.1552734375,-39.6826171875,-5.6884765625
13.1967473,-105.6884765625,-38.6083984375,-8.8134765625
13.2065955,-103.2470703125,-38.8525390625,-15.5517578125
13.2514563,-100.6591796875,-38.2666015625,-27.8076171875
13.2715153,-99.1943359375,-38.1689453125,-40.4052734375
13.3153019,-98.2177734375,-37.7294921875,-46.0693359375
13.3457046,-98.6083984375,-37.5830078125,-46.1181640625
13.3581794,-98.6083984375,-36.9970703125,-46.4599609375
13.4032658,-98.4619140625,-37.9736328125,-47.9736328125
13.4212469,-98.6572265625,-37.8271484375,-49.8291015625
13.4727683,-98.5107421875,-38.4130859375,-53.4423828125
13.4933958,-98.1689453125,-38.9501953125,-56.8603515625
13.5078359,-99.5849609375,-39.6826171875,-61.2060546875
13.5561227,-100.5126953125,-39.9267578125,-66.0400390625
13.5703713,-100.8056640625,-40.8056640625,-70.1416015625
13.6136272,-102.2705078125,-41.5869140625,-74.7314453125
13.6336287,-102.8076171875,-41.5869140625,-78.0029296875
13.6603822,-104.3701171875,-42.2705078125,-81.2744140625
13.689377,-105.2001953125,-42.9052734375,-82.8369140625
13.7243795,-105.8349609375,-43.5888671875,-84.1064453125
13.7534488,-106.6162109375,-44.9072265625,-85.6689453125
13.7795871,-108.1787109375,-45.4443359375,-89.4287109375
13.8252794,-108.1787109375,-45.7861328125,-94.3603515625
13.8430499,-110.3271484375,-46.6650390625,-98.0224609375
13.8757981,-111.7431640625,-45.5419921875,-99.1455078125
13.9033811,-112.7685546875,-43.9794921875,-74.9267578125
13.9326493,-113.2080078125,-42.3681640625,-34.8388671875
13.9606503,-113.7939453125,-41.0986328125,-13.8427734375
13.9923324,-112.5244140625,-39.5849609375,-6.7626953125
14.0359302,-110.0830078125,-38.7548828125,-4.7119140625
14.0544757,-106.3720703125,-37.6806640625,-5.8349609375
14.0841104,-103.0029296875,-36.7041015625,-9.9365234375
14.1114369,-101.6357421875,-36.5576171875,-20.7275390625
14.1404977,-99.0478515625,-36.8994140625,-34.4482421875
14.1856005,-97.4853515625,-35.2880859375,-43.3837890625
14.2034812,-97.4853515625,-35.9716796875,-45.4345703125
14.2354308,-97.7783203125,-35.1904296875,-45.7275390625
14.264796,-97.3876953125,-36.2158203125,-46.7041015625
14.2914973,-97.1923828125,-36.3134765625,-48.0712890625
14.3261976,-96.9970703125,-36.2158203125,-50.7080078125
14.3529891,-98.1689453125,-36.9970703125,-54.3212890625
14.3869439,-98.4619140625,-37.0458984375,-57.7880859375
14.4142723,-98.6572265625,-37.7294921875,-62.7685546875
14.4443414,-100.5615234375,-38.3642578125,-67.7978515625
14.4778324,-100.6103515625,-38.7548828125,-71.6552734375
14.504714,-102.1728515625,-39.5361328125,-75.5615234375
14.5341628,-103.2470703125,-40.0732421875,-78.2470703125
14.5666614,-103.4423828125,-40.2685546875,-79.6630859375
14.5951238,-105.2490234375,-41.2939453125,-81.0791015625
14.6295878,-105.6396484375,-41.7822265625,-83.3251953125
14.6558659,-106.4697265625,-41.9287109375,-87.0849609375
14.686141,-107.7392578125,-43.0517578125,-91.3330078125
14.7139223,-108.7646484375,-43.0029296875,-95.1416015625
14.7480298,-109.6435546875,-42.4658203125,-94.8486328125
14.7752942,-111.5478515625,-40.3662109375,-68.1396484375
14.8088508,-111.4990234375,-38.6083984375,-29.8583984375
14.8358497,-113.0126953125,-37.5830078125,-11.4990234375
14.8672856,-111.5478515625,-36.4599609375,-4.7607421875
14.8991498,-108.0322265625,-34.8486328125,-2.1240234375
14.9276932,-105.8837890625,-33.6279296875,-3.8818359375
14.9599856,-101.7822265625,-33.6767578125,-8.8134765625
14.9875806,-100.1708984375,-32.7978515625,-20.2392578125
15.0177323,-98.3642578125,-32.1142578125,-33.0810546875
15.0473103,-96.0205078125,-32.1630859375,-42.4072265625
15.0810247,-96.4111328125,-32.5537109375,-44.1162109375
15.1077358,-96.8505859375,-32.5537109375,-44.0185546875
15.1406415,-96.8994140625,-33.0419921875,-44.1650390625
15.1692116,-96.7041015625,-33.0908203125,-46.2158203125
15.1989161,-96.3623046875,-33.0419921875,-48.6083984375
15.2307929,-96.7041015625,-33.5791015625,-52.1728515625
15.2847112,-97.2412109375,-34.0185546875,-56.2255859375
15.3048253,-97.4853515625,-34.7509765625,-60.8642578125
15.3212006,-98.5107421875,-35.3369140625,-65.7958984375
15.3491141,-100.0244140625,-35.6298828125,-70.0927734375
15.3816714,-100.2685546875,-36.8994140625,-74.3896484375
15.4407321,-102.3681640625,-37.1435546875,-76.6357421875
15.44172,-103.5400390625,-38.0224609375,-78.7353515625
15.471922,-103.8330078125,-38.3642578125,-80.4443359375
15.5174602,-104.6142578125,-39.5361328125,-81.6162109375
15.5379391,-105.8837890625,-40.1220703125,-85.4248046875
15.5795112,-106.6162109375,-40.7080078125,-89.8681640625
15.6130616,-107.4951171875,-40.9033203125,-94.5068359375
15.6190841,-108.7158203125,-40.3173828125,-93.5791015625
15.6691382,-110.0830078125,-38.1201171875,-67.0654296875
15.6906567,-110.6201171875,-37.2900390625,-26.8310546875
15.7285877,-111.9384765625,-34.7509765625,-9.3994140625
15.7546758,-110.8154296875,-33.6279296875,-1.2939453125
15.7720838,-107.7880859375,-32.3583984375,1.2451171875
15.7997734,-104.3212890625,-31.4794921875,0.5126953125
15.832618,-100.8544921875,-30.2099609375,-4.3701171875
15.8801023,-98.5595703125,-30.6494140625,-14.0869140625
15.8993206,-96.6552734375,-29.5751953125,-27.3193359375
15.9367671,-94.4091796875,-29.5263671875,-36.3525390625
15.9587312,-93.4326171875,-28.8916015625,-38.7451171875
16.0016816,-93.8232421875,-28.9892578125,-38.2568359375
16.0221521,-93.9697265625,-29.3798828125,-38.7939453125
16.0620491,-93.8720703125,-30.2587890625,-40.8935546875
16.0732995,-93.6279296875,-30.3564453125,-44.0673828125
16.1170302,-93.6279296875,-30.8447265625,-47.0458984375
16.1386581,-94.2626953125,-31.3330078125,-51.1474609375
16.163634,-95.1416015625,-32.1142578125,-56.0302734375
16.1951399,-95.9228515625,-33.2373046875,-61.2060546875
16.2410009,-97.2900390625,-33.7255859375,-65.0634765625
16.2603615,-97.8759765625,-34.4091796875,-69.3115234375
16.2988256,-99.3408203125,-35.0927734375,-71.4111328125
16.3190555,-100.8056640625,-36.0205078125,-73.5595703125
16.3435988,-101.5869140625,-36.6064453125,-74.1455078125
16.3721914,-102.0751953125,-36.9970703125,-76.5380859375
16.4224638,-102.8564453125,-38.0224609375,-79.6142578125
16.4483973,-104.0283203125,-39.3896484375,-84.3505859375
16.4682481,-104.9072265625,-39.2431640625,-88.4521484375
16.5111003,-105.9326171875,-37.9248046875,-88.5986328125
16.5321909,-107.6904296875,-36.4111328125,-64.8193359375
16.588803,-108.4716796875,-34.1650390625,-26.1474609375
16.589789,-109.8876953125,-33.5302734375,-6.9091796875
16.6170846,-109.0087890625,-32.8955078125,1.1962890625
16.6631398,-107.2021484375,-30.9912109375,4.1259765625
16.6836505,-103.7353515625,-29.4775390625,2.9541015625
16.7240443,-100.5615234375,-29.7705078125,-1.0986328125
16.7456654,-98.0712890625,-29.2333984375,-10.5712890625
16.7945498,-96.0693359375,-28.8427734375,-23.0224609375
16.8254551,-93.2861328125,-28.3544921875,-31.4208984375
16.8264588,-92.7490234375,-28.5498046875,-33.7158203125
16.8736675,-93.1884765625,-28.5009765625,-34.1552734375
16.8937384,-93.1396484375,-28.2080078125,-34.7412109375
16.9335311,-92.7490234375,-28.8916015625,-37.5244140625
16.9535933,-92.7490234375,-29.6728515625,-39.9169921875
16.9965112,-93.5302734375,-30.1611328125,-43.0419921875
17.0180026,-93.6279296875,-31.4794921875,-47.5341796875
17.0556698,-94.7509765625,-31.8212890625,-51.9287109375
17.077223,-95.4833984375,-32.9931640625,-56.4697265625
17.1139577,-96.7041015625,-33.3837890625,-60.0830078125
17.1353809,-97.3876953125,-34.2626953125,-64.7216796875
17.1787941,-99.0478515625,-34.6533203125,-66.6748046875
17.1989653,-99.7314453125,-34.7998046875,-68.8720703125
17.2348485,-101.0498046875,-36.0205078125,-69.8974609375
17.2553172,-102.6123046875,-37.0947265625,-72.1435546875
17.2954257,-103.0029296875,-37.9248046875,-76.0986328125
17.3147222,-104.1748046875,-38.8037109375,-80.1025390625
17.3395425,-104.9072265625,-39.6826171875,-84.3017578125
17.3722425,-106.4208984375,-37.6318359375,-83.6181640625
17.4204595,-107.4951171875,-36.4599609375,-57.4951171875
17.4519473,-108.9111328125,-35.4833984375,-19.7021484375
17.4580438,-109.3017578125,-33.7255859375,-2.2705078125
17.5104848,-108.7158203125,-32.3095703125,4.5654296875
17.5319225,-107.1533203125,-30.8935546875,7.5439453125
17.5524286,-104.0771484375,-30.0634765625,6.6162109375
17.5815894,-100.6591796875,-30.3076171875,2.0263671875
17.6114129,-97.8271484375,-29.8193359375,-8.3740234375
17.642366,-96.2158203125,-29.1845703125,-20.7275390625
17.6897869,-93.6767578125,-29.2333984375,-28.2470703125
17.7107985,-92.1630859375,-29.2822265625,-31.5185546875
17.7490233,-92.9443359375,-29.5751953125,-31.6650390625
17.7691234,-93.1884765625,-28.9892578125,-32.5927734375
17.8154667,-92.7490234375,-30.4052734375,-35.3759765625
17.8355138,-92.7001953125,-30.7470703125,-38.1591796875
17.8525428,-93.2861328125,-31.0888671875,-42.1630859375
17.8826683,-92.8466796875,-31.7724609375,-46.7041015625
17.9297798,-94.6044921875,-32.6025390625,-51.6845703125
17.9484694,-94.8486328125,-33.3837890625,-56.4697265625
17.9928892,-95.7275390625,-34.6044921875,-60.9130859375
18.0128428,-96.6552734375,-34.7021484375,-64.4287109375
18.0490829,-97.4853515625,-36.0205078125,-67.0166015625
18.069471,-98.7060546875,-36.0205078125,-68.7255859375
18.1099491,-100.1708984375,-36.6552734375,-70.4345703125
18.1290024,-101.0498046875,-38.2177734375,-73.0712890625
18.1719802,-101.9775390625,-38.9501953125,-76.8798828125
18.194047,-102.9052734375,-39.8779296875,-81.7626953125
18.2160195,-103.8330078125,-39.9267578125,-85.0830078125
18.244403,-105.1513671875,-38.8525390625,-83.1298828125
18.2770029,-106.6650390625,-37.1923828125,-51.0986328125
18.3356627,-107.8857421875,-35.4345703125,-14.9658203125
18.3380125,-108.4228515625,-34.7509765625,0.8544921875
18.3656131,-108.3740234375,-33.2373046875,7.2509765625
18.4124304,-105.7373046875,-32.8466796875,8.3740234375
18.433664,-103.0517578125,-32.6025390625,7.2021484375
18.471837,-99.6337890625,-32.2119140625,2.3193359375
18.4857696,-97.7294921875,-31.9189453125,-10.1318359375
18.5384796,-94.3603515625,-31.2841796875,-22.1923828125
18.5474594,-92.9443359375,-31.6748046875,-31.4697265625
18.5937382,-91.9677734375,-31.1376953125,-32.7880859375
18.6118425,-92.1142578125,-31.8701171875,-32.3974609375
18.6652768,-92.5537109375,-31.6748046875,-33.5693359375
18.6844873,-92.3095703125,-32.5048828125,-36.1083984375
18.6934536,-92.1142578125,-33.2373046875,-39.0380859375
18.74351,-91.8212890625,-34.0673828125,-43.1884765625
18.7564475,-92.3583984375,-35.0439453125,-47.2412109375
18.789032,-93.4814453125,-36.0205078125,-52.0751953125
18.8353617,-94.0185546875,-36.8017578125,-57.2021484375
18.8476676,-94.9462890625,-36.3134765625,-61.8896484375
18.8788593,-96.5087890625,-37.7783203125,-66.1865234375
18.9334014,-97.8759765625,-38.9013671875,-68.3349609375
18.9398313,-98.5107421875,-39.1943359375,-70.4345703125
18.9715097,-99.5849609375,-40.0244140625,-71.2646484375
19.013964,-100.1708984375,-41.3427734375,-74.0478515625
19.0302022,-101.5869140625,-41.7333984375,-77.5634765625
19.0753942,-102.6611328125,-42.8076171875,-83.0810546875
19.0895492,-103.1494140625,-42.0263671875,-86.9873046875
19.1220943,-105.3955078125,-41.4404296875,-83.7158203125
19.1493694,-106.0302734375,-40.2197265625,-51.8310546875
19.1799651,-106.8603515625,-39.6826171875,-14.7705078125
19.2115839,-108.1298828125,-38.0224609375,0.8544921875
19.2400087,-107.7880859375,-36.7041015625,7.7880859375
19.2702665,-106.0791015625,-35.6787109375,10.2294921875
19.3016752,-103.2958984375,-34.5556640625,8.2763671875
19.3300562,-99.5361328125,-34.8486328125,2.5634765625
19.3649551,-97.2900390625,-34.4580078125,-9.0087890625
19.3926931,-94.8974609375,-34.8486328125,-21.6064453125
19.4200896,-92.7490234375,-34.4091796875,-29.8095703125
19.4538222,-90.6005859375,-33.9208984375,-31.7626953125
19.4830814,-90.3564453125,-34.4091796875,-31.4208984375
19.5262567,-91.1376953125,-34.4580078125,-32.4951171875
19.5435639,-91.4794921875,-34.2626953125,-35.9619140625
19.5717009,-91.5283203125,-36.4599609375,-38.3056640625
19.601337,-91.5771484375,-36.1669921875,-41.7236328125
19.6333589,-91.8212890625,-36.7529296875,-47.3388671875
19.6631955,-92.1630859375,-37.8271484375,-51.4892578125
19.6941543,-93.3349609375,-38.6083984375,-56.7626953125
19.7231962,-94.6533203125,-39.1455078125,-60.4248046875
19.7526451,-96.2158203125,-39.5849609375,-65.0634765625
19.7824615,-96.8505859375,-39.8291015625,-68.1396484375
19.814183,-97.5341796875,-41.6357421875,-69.9951171875
19.8431225,-98.8037109375,-41.7333984375,-71.4599609375
19.8761575,-100.7080078125,-42.6611328125,-73.6572265625
19.9050866,-101.1474609375,-43.3935546875,-77.4658203125
19.9341888,-102.8564453125,-44.5654296875,-81.8603515625
19.9664021,-103.2958984375,-45.2001953125,-86.3525390625
19.9949715,-104.4189453125,-43.9794921875,-84.5458984375
20.0266365,-106.0302734375,-42.1728515625,-55.0537109375
20.0569275,-107.4951171875,-41.3427734375,-16.8701171875
20.0845802,-108.9599609375,-40.1708984375,0.4150390625
20.116418,-109.0087890625,-39.4384765625,7.0556640625
20.1463073,-107.4951171875,-38.7060546875,8.7158203125
20.1753335,-104.1259765625,-37.8759765625,7.1533203125
20.2061774,-100.3173828125,-37.4365234375,1.5380859375
20.2374829,-98.3642578125,-37.8759765625,-10.2294921875
20.2645499,-95.7275390625,-37.2900390625,-24.1943359375
20.2980202,-93.2861328125,-37.0947265625,-32.7392578125
20.3274739,-92.1142578125,-36.7529296875,-34.1064453125
20.3586003,-91.6748046875,-36.5087890625,-34.5947265625
20.3864123,-92.6025390625,-37.3388671875,-35.6201171875
20.4159925,-92.8955078125,-37.6806640625,-37.4755859375
20.4490455,-92.0166015625,-38.2177734375,-40.9423828125
20.4783391,-92.7001953125,-38.5595703125,-44.7021484375
20.5084346,-92.4072265625,-39.8291015625,-49.4384765625
20.538737,-93.5791015625,-40.4638671875,-53.6865234375
20.5693908,-94.6044921875,-40.4150390625,-58.9599609375
20.6146476,-95.3369140625,-41.3916015625,-63.2080078125
20.6306399,-96.6064453125,-42.2216796875,-67.1630859375
20.6578739,-97.6318359375,-42.7099609375,-69.9951171875
20.6865447,-98.7060546875,-43.2470703125,-71.5576171875
20.7193403,-100.0732421875,-44.3701171875,-73.3642578125
20.7489358,-101.0009765625,-45.0048828125,-76.1474609375
20.7959095,-102.6123046875,-45.4443359375,-80.3466796875
20.8177509,-103.8818359375,-46.5185546875,-84.4482421875
20.8383684,-104.4677734375,-47.1533203125,-88.5498046875
20.8721142,-106.3232421875,-45.0048828125,-85.2783203125
20.9177454,-106.7626953125,-43.6376953125,-50.9033203125
20.9377148,-109.0087890625,-42.3681640625,-14.2333984375
20.9778303,-109.7900390625,-41.8310546875,0.9033203125
20.9981483,-109.9853515625,-40.9521484375,7.2998046875
21.0365966,-108.5693359375,-39.6826171875,7.8857421875
21.0578229,-105.3466796875,-38.8037109375,6.0791015625
21.0791568,-102.3681640625,-38.2666015625,-0.7080078125
21.1292468,-99.2919921875,-38.3154296875,-12.9638671875
21.1494915,-96.4111328125,-37.5830078125,-27.3681640625
21.201523,-95.4833984375,-37.6318359375,-35.0830078125
21.2025137,-93.1884765625,-37.5830078125,-36.5966796875
21.2324263,-93.4814453125,-37.8759765625,-36.5478515625
21.2593025,-94.1650390625,-37.7783203125,-37.2314453125
21.2919558,-94.7509765625,-37.5830078125,-40.1611328125
21.3214163,-94.3115234375,-38.6572265625,-43.2373046875
21.3730491,-94.2626953125,-38.9013671875,-47.3876953125
21.393311,-94.7509765625,-39.6337890625,-52.3193359375
21.411077,-94.8486328125,-40.3173828125,-57.7392578125
21.4598356,-96.2158203125,-40.9521484375,-62.1337890625
21.4801277,-97.0458984375,-41.9287109375,-67.6513671875
21.5005056,-98.7060546875,-42.5146484375,-71.0205078125
21.5343878,-99.1455078125,-43.1005859375,-74.4873046875
21.5800939,-101.0009765625,-43.5888671875,-76.3427734375
21.5991575,-101.9287109375,-44.5654296875,-77.0751953125
21.6366082,-103.2470703125,-45.6884765625,-79.6630859375
21.6581291,-104.6142578125,-46.1767578125,-83.2763671875
21.699779,-105.2978515625,-46.5673828125,-88.2080078125
21.7138661,-106.0791015625,-46.8603515625,-92.8466796875
21.7424412,-107.1533203125,-45.7861328125,-93.2373046875
21.7926902,-108.1787109375,-44.1259765625,-65.4541015625
21.8046104,-109.7900390625,-42.9541015625,-22.7294921875
21.8337218,-111.4013671875,-41.6845703125,-2.4169921875
21.8674884,-112.3291015625,-40.5615234375,5.4443359375
21.8957133,-111.3037109375,-39.0478515625,8.5205078125
21.9234781,-109.1064453125,-38.8037109375,6.6650390625
21.9692559,-105.1513671875,-37.8271484375,1.8798828125
21.9905975,-101.7333984375,-38.0224609375,-9.3505859375
22.014328,-98.9501953125,-37.4365234375,-23.4619140625
22.0473781,-97.1923828125,-37.0458984375,-33.4716796875
22.093614,-95.2392578125,-36.0693359375,-37.0849609375
22.1128695,-93.7255859375,-36.7041015625,-36.9384765625
22.1530024,-94.0673828125,-36.3623046875,-37.4755859375
22.17222,-94.4091796875,-36.9970703125,-39.9658203125
22.2142121,-94.4580078125,-37.5341796875,-42.5048828125
22.2357273,-94.4091796875,-38.1201171875,-46.8505859375
22.2709134,-94.4580078125,-38.3642578125,-51.1962890625
22.2914824,-95.1904296875,-39.0478515625,-56.8115234375
22.3162865,-96.4111328125,-39.3896484375,-61.2060546875
22.3464555,-97.3876953125,-40.6103515625,-66.9677734375
22.3942733,-98.6083984375,-41.1962890625,-70.8251953125
22.4144469,-99.2919921875,-41.7822265625,-74.7314453125
22.4537737,-100.7080078125,-42.0263671875,-76.4892578125
22.4728294,-102.3681640625,-42.5634765625,-78.1494140625
22.4972755,-102.4658203125,-43.5400390625,-80.1025390625
22.5296096,-104.2724609375,-44.4189453125,-83.0322265625
22.5584804,-105.1513671875,-45.1025390625,-87.4267578125
22.5879389,-105.7861328125,-46.3232421875,-92.9931640625
22.6198522,-107.2021484375,-45.2978515625,-96.3134765625
22.6473118,-107.9345703125,-43.6376953125,-83.7646484375
22.7040232,-109.3017578125,-41.6357421875,-40.8447265625
22.7231822,-110.0830078125,-39.9755859375,-10.1318359375
22.7379457,-111.8896484375,-38.7548828125,1.6845703125
22.7981232,-111.8408203125,-37.7294921875,5.6884765625
22.79911,-110.1318359375,-36.7041015625,5.1513671875
22.8282583,-106.9091796875,-36.2158203125,2.2216796875
22.8752548,-104.0283203125,-35.4833984375,-6.6650390625
22.8966988,-100.7080078125,-34.7509765625,-20.5810546875
22.9182093,-98.3642578125,-33.7744140625,-32.8369140625
22.9522521,-96.4599609375,-34.1650390625,-38.2080078125
22.9810497,-94.9462890625,-34.6044921875,-39.5751953125
23.0289141,-94.4580078125,-34.7509765625,-39.6728515625
23.0424386,-94.7021484375,-34.7021484375,-41.2353515625
23.0722489,-95.1416015625,-35.5810546875,-43.7744140625
23.1027068,-94.5068359375,-35.6298828125,-47.1435546875
23.1510401,-94.5556640625,-36.6552734375,-51.8310546875
23.1701362,-95.0439453125,-37.4365234375,-56.3232421875
23.2053932,-95.2880859375,-37.7294921875,-61.5966796875
23.2267269,-96.2158203125,-37.5830078125,-65.8447265625
23.251356,-96.6064453125,-39.1455078125,-71.7041015625
23.2841922,-97.8271484375,-39.2431640625,-75.0244140625
23.3131066,-99.5849609375,-40.2197265625,-77.9052734375
23.3452527,-100.1220703125,-41.2451171875,-79.5654296875
23.3914647,-100.9033203125,-41.7333984375,-80.4931640625
23.4117763,-102.6123046875,-42.5634765625,-82.7880859375
23.4334001,-103.0517578125,-43.4912109375,-86.5478515625
23.4782086,-104.3212890625,-44.2724609375,-91.7236328125
23.4995464,-105.1513671875,-44.1748046875,-95.8740234375
23.5469242,-106.1279296875,-43.7353515625,-97.3388671875
23.5684408,-107.1533203125,-40.9521484375,-72.3876953125
23.5833618,-108.9111328125,-40.2197265625,-28.1494140625
23.6145685,-109.9853515625,-38.7060546875,-6.3720703125
23.6429069,-110.6689453125,-37.2412109375,1.4892578125
23.6727788,-110.3759765625,-36.2646484375,4.0771484375
23.7048482,-108.3740234375,-34.6533203125,2.7587890625
23.7358988,-105.2978515625,-34.8486328125,-2.8564453125
23.7810301,-102.3681640625,-34.6533203125,-13.5498046875
23.7949231,-99.5361328125,-33.7744140625,-28.0517578125
23.825053,-97.7294921875,-32.7490234375,-37.5732421875
23.8575972,-95.5322265625,-32.8466796875,-41.2841796875
23.8849866,-94.2138671875,-33.3349609375,-41.9677734375
23.9146995,-94.5556640625,-34.4580078125,-42.7978515625
23.9474989,-94.9951171875,-33.9208984375,-44.4580078125
23.9766348,-95.3369140625,-34.5556640625,-47.9736328125
24.0104694,-94.6533203125,-35.0439453125,-51.7822265625
24.0381599,-95.1904296875,-35.9716796875,-57.5439453125
24.0835456,-96.6064453125,-36.8017578125,-63.0615234375
24.0974667,-96.2646484375,-37.4853515625,-67.3583984375
24.1282224,-97.1435546875,-38.0224609375,-72.1923828125
24.1548339,-98.2177734375,-38.9013671875,-76.3427734375
24.1903575,-99.4384765625,-40.0732421875,-81.3232421875
24.2162254,-101.3427734375,-40.6103515625,-83.7158203125
24.2509965,-101.8310546875,-40.9521484375,-86.1083984375
24.2789706,-102.7587890625,-42.0263671875,-87.0849609375
24.3070649,-103.4912109375,-42.4658203125,-89.4287109375
24.3521151,-105.4443359375,-43.5888671875,-93.4814453125
24.3691113,-105.8349609375,-44.5654296875,-98.7060546875
24.3974836,-107.1044921875,-45.1025390625,-103.1982421875
24.4302242,-108.1298828125,-43.2958984375,-103.6865234375
24.4592789,-109.1064453125,-41.9775390625,-76.1962890625
24.4889322,-111.0595703125,-40.2685546875,-31.2255859375
24.5207351,-112.1337890625,-38.7548828125,-8.2763671875
24.5486215,-113.1591796875,-37.1923828125,-0.7568359375
24.5784089,-112.9150390625,-36.2158203125,1.4892578125
24.6108525,-111.1572265625,-35.5322265625,0.6103515625
24.6404263,-107.5439453125,-35.1904296875,-4.7119140625
24.6673559,-104.2236328125,-35.0439453125,-16.3330078125
24.6998733,-101.2939453125,-34.8486328125,-31.5185546875
24.7292683,-99.0478515625,-34.5068359375,-41.7724609375
24.7631619,-96.7041015625,-34.0673828125,-45.9228515625
24.7925711,-95.7275390625,-34.4091796875,-46.4111328125
24.8200837,-95.3857421875,-34.6533203125,-47.7294921875
24.8540285,-96.1669921875,-35.1904296875,-49.3408203125
24.880375,-96.3134765625,-35.5810546875,-52.4658203125
24.9101269,-95.8740234375,-35.9228515625,-55.8837890625
24.9420971,-95.2880859375,-37.1435546875,-61.2060546875
24.9705862,-96.3623046875,-38.2666015625,-65.5517578125
25.0049698,-97.4853515625,-39.1455078125,-70.8251953125
25.033424,-97.4365234375,-39.7314453125,-75.9521484375
25.0617344,-98.6572265625,-40.3173828125,-80.1513671875
25.0940454,-99.9267578125,-40.8544921875,-84.4970703125
25.123436,-101.1474609375,-41.3427734375,-87.2314453125
25.1511801,-101.8798828125,-42.3681640625,-88.8916015625
25.1838348,-103.3447265625,-42.9541015625,-89.7705078125
25.2121813,-104.7119140625,-43.7841796875,-92.5048828125
25.2420377,-104.9560546875,-45.3466796875,-96.8994140625
25.2732053,-106.9580078125,-44.8095703125,-102.5634765625
25.3039663,-106.7626953125,-45.5908203125,-106.6162109375
25.336717,-108.1298828125,-44.5654296875,-107.2509765625
25.3642743,-109.5947265625,-43.5888671875,-79.3212890625
25.3936774,-110.8154296875,-41.1962890625,-33.6669921875
25.4256148,-111.8408203125,-40.6591796875,-11.6455078125
25.4559384,-113.0126953125,-39.4873046875,-3.8330078125
25.4824423,-113.2568359375,-38.7548828125,-1.4892578125
25.5203176,-111.4013671875,-37.7783203125,-3.1982421875
25.5441288,-108.3251953125,-37.7294921875,-9.6923828125
25.5725804,-104.6630859375,-37.7783203125,-20.8740234375
25.6060102,-101.9287109375,-37.2412109375,-36.2548828125
25.6360378,-99.6826171875,-36.6064453125,-46.9970703125
25.6665481,-97.0458984375,-37.1923828125,-50.8056640625
25.6966707,-96.4111328125,-37.1435546875,-49.9267578125
25.7260014,-96.6552734375,-36.9970703125,-50.6103515625
25.7578634,-97.1435546875,-37.7294921875,-52.4169921875
25.7872007,-97.2900390625,-38.0712890625,-55.3955078125
25.8140158,-97.5341796875,-38.9990234375,-58.7158203125
25.8473723,-96.9970703125,-39.9267578125,-63.4033203125
25.8759846,-97.1435546875,-40.5126953125,-68.2373046875
25.9084599,-97.7783203125,-40.8544921875,-73.4619140625
25.9547917,-98.6572265625,-41.5380859375,-78.1005859375
25.9763066,-99.7802734375,-42.5146484375,-82.6416015625
25.9992733,-100.7080078125,-43.2958984375,-86.3037109375
26.0286023,-101.5869140625,-44.1748046875,-88.2568359375
26.0557756,-102.7099609375,-44.8583984375,-89.2822265625
26.0876156,-103.6376953125,-45.3466796875,-90.6982421875
26.1191118,-104.8095703125,-46.9580078125,-93.5302734375
26.151653,-105.8837890625,-47.2998046875,-97.8759765625
26.196249,-107.2509765625,-47.3486328125,-102.8076171875
26.2164978,-108.0810546875,-47.4951171875,-106.5185546875
26.2368342,-108.9111328125,-45.6884765625,-99.8291015625
26.2881827,-110.2294921875,-44.7607421875,-59.5458984375
26.3083516,-110.6689453125,-43.7841796875,-22.9248046875
26.3307316,-112.3779296875,-42.4658203125,-7.4462890625
26.3783756,-113.1103515625,-41.5380859375,-2.6611328125
26.3975191,-112.7197265625,-40.4638671875,-2.2705078125
26.4192922,-111.1572265625,-40.4150390625,-4.7607421875
26.4493778,-108.0322265625,-39.9755859375,-11.9384765625
26.4822087,-104.6142578125,-39.9755859375,-24.9755859375
26.5115885,-102.2216796875,-39.5849609375,-38.7451171875
26.540984,-99.9755859375,-39.2431640625,-46.4111328125
26.5694861,-98.0712890625,-39.9755859375,-48.4130859375
26.618992,-96.6064453125,-40.3662109375,-47.9248046875
26.6390859,-96.0205078125,-40.8056640625,-49.4873046875
26.6629485,-96.6552734375,-40.9521484375,-51.5380859375
26.6911081,-96.9482421875,-41.1962890625,-55.2001953125
26.7219017,-96.8994140625,-41.4892578125,-58.7158203125
26.7541229,-96.4111328125,-42.5634765625,-63.1103515625
26.7825593,-97.3388671875,-43.3935546875,-69.0185546875
26.811265,-97.3876953125,-43.7353515625,-73.5107421875
26.8618763,-98.5595703125,-44.0771484375,-78.4423828125
26.8851359,-100.1708984375,-44.9560546875,-83.0322265625
26.905928,-100.3173828125,-45.6396484375,-86.4501953125
26.9330806,-101.8798828125,-46.4208984375,-89.0380859375
26.9628567,-102.8564453125,-47.4951171875,-90.0146484375
26.9901469,-104.0283203125,-47.7392578125,-91.6259765625
27.0564356,-105.1025390625,-48.9599609375,-94.6044921875
27.0574266,-105.6396484375,-49.3017578125,-99.7314453125
27.08803,-107.1533203125,-50.1806640625,-105.0048828125
27.1317754,-107.9833984375,-49.6435546875,-108.2275390625
27.1655502,-108.4716796875,-47.7880859375,-93.3837890625
27.1756828,-109.8876953125,-46.6162109375,-47.8271484375
27.2045367,-111.2060546875,-45.2490234375,-16.4794921875
27.2368249,-112.1337890625,-44.1259765625,-5.2978515625
27.2660723,-113.3544921875,-43.6376953125,-0.9033203125
27.2941892,-113.2080078125,-43.0029296875,-1.1474609375
27.3232648,-110.9619140625,-42.3193359375,-4.2724609375
27.373681,-106.5185546875,-42.4169921875,-12.7197265625
27.3940167,-103.7841796875,-41.5869140625,-26.7333984375
27.4351786,-100.9521484375,-41.9287109375,-39.8193359375
27.4543146,-98.4619140625,-41.5869140625,-45.6298828125
27.4754608,-96.4111328125,-41.4404296875,-46.6064453125
27.5064881,-94.2626953125,-41.4404296875,-46.9970703125
27.5345041,-94.9462890625,-42.1728515625,-48.0712890625
27.568151,-95.1904296875,-42.2705078125,-50.7080078125
27.5971039,-95.2392578125,-42.9052734375,-54.5166015625
27.6254592,-95.4833984375,-43.5888671875,-58.4716796875
27.6741736,-94.9951171875,-44.0283203125,-64.2333984375
27.687744,-95.6787109375,-44.6630859375,-69.6044921875
27.7149729,-96.6552734375,-45.2978515625,-73.8037109375
27.748235,-96.9482421875,-46.0791015625,-78.6376953125
27.7779637,-97.7783203125,-46.5185546875,-82.5439453125
27.8096346,-98.8037109375,-47.6416015625,-85.6201171875
27.8573668,-99.9267578125,-47.9833984375,-87.2314453125
27.8764564,-100.6591796875,-48.9599609375,-89.4287109375
27.8963608,-101.9287109375,-49.6923828125,-91.5283203125
27.9277375,-103.1005859375,-50.8154296875,-96.0693359375
27.9767094,-104.1748046875,-50.4736328125,-100.9521484375
27.9970502,-104.7607421875,-50.9619140625,-105.6396484375
28.0350273,-105.4443359375,-49.3994140625,-102.4169921875
28.056484,-106.9580078125,-48.6181640625,-66.7236328125
28.0959889,-108.2275390625,-48.0810546875,-26.4404296875
28.1079318,-108.9111328125,-46.6162109375,-9.1552734375
28.1371763,-111.1083984375,-46.0791015625,-2.7587890625
28.169836,-111.0107421875,-45.2001953125,-1.0498046875
28.2003851,-109.7900390625,-44.8583984375,-3.4912109375
28.2270521,-107.2998046875,-43.8330078125,-9.3994140625
28.2616205,-104.0771484375,-44.1259765625,-22.5341796875
28.2884544,-100.2685546875,-43.2470703125,-36.8896484375
28.3383558,-98.3642578125,-43.0517578125,-45.1904296875
28.3585837,-95.4833984375,-43.8330078125,-47.3388671875
28.3790658,-94.1162109375,-44.2724609375,-47.7294921875
28.4124639,-92.6513671875,-44.1259765625,-49.3408203125
28.458809,-93.6279296875,-43.9794921875,-51.1474609375
28.4899744,-94.1162109375,-44.1259765625,-54.6142578125
28.5008319,-93.6279296875,-45.1513671875,-58.1298828125
28.5495051,-94.3603515625,-45.5908203125,-62.4755859375
28.5698238,-93.6279296875,-46.6650390625,-67.7490234375
28.5915544,-94.7021484375,-46.5673828125,-73.1201171875
28.6195051,-95.3857421875,-47.7880859375,-77.5146484375
28.6571146,-96.3623046875,-48.7646484375,-82.2998046875
28.7007686,-96.8994140625,-49.1064453125,-85.5712890625
28.7220504,-98.6572265625,-49.3994140625,-87.8173828125
28.7616314,-99.1943359375,-50.2294921875,-88.7451171875
28.7808847,-100.6103515625,-50.8154296875,-90.6005859375
28.8011526,-101.6357421875,-51.0107421875,-94.5556640625
28.8331786,-102.5146484375,-51.6943359375,-98.7548828125
28.861682,-103.6376953125,-52.8173828125,-104.0283203125
28.8921027,-104.7119140625,-52.0849609375,-106.6650390625
28.9239591,-105.6884765625,-50.9619140625,-88.6474609375
28.9528932,-106.1279296875,-48.7646484375,-43.3349609375
29.0036792,-107.6904296875,-48.0322265625,-15.3076171875
29.0137588,-109.1064453125,-47.0068359375,-5.4443359375
29.043677,-109.8876953125,-46.6650390625,-2.5634765625
29.0921232,-110.2783203125,-44.9560546875,-3.0517578125
29.1134624,-108.8623046875,-45.0537109375,-7.8857421875
29.1334701,-105.0048828125,-44.5654296875,-17.5537109375
29.1832189,-102.4169921875,-44.7607421875,-31.5673828125
29.1948626,-99.2431640625,-44.4677734375,-42.3583984375
29.2229106,-97.0947265625,-44.8095703125,-46.5087890625
29.2725438,-94.7998046875,-44.2724609375,-47.6318359375
29.2916691,-93.4814453125,-44.4189453125,-49.1943359375
29.3180143,-93.6767578125,-43.9306640625,-50.6103515625
29.3449293,-93.4326171875,-45.3955078125,-52.8564453125
29.3806082,-94.4580078125,-45.1025390625,-56.3232421875
29.4230192,-93.4326171875,-45.2490234375,-60.9130859375
29.4431068,-93.3837890625,-45.3955078125,-65.8935546875
29.4691487,-93.4326171875,-46.8603515625,-70.5810546875
29.4966931,-94.6044921875,-46.8115234375,-75.2197265625
29.5320325,-95.1904296875,-47.4462890625,-79.4189453125
29.5756441,-96.0205078125,-48.1787109375,-83.5693359375
29.5857326,-96.5576171875,-49.0087890625,-86.0107421875
29.617997,-98.3154296875,-50.2783203125,-87.2314453125
29.6500554,-98.9501953125,-50.1318359375,-88.8427734375
29.6785408,-100.4150390625,-50.5712890625,-91.8701171875
29.7064568,-101.0498046875,-52.4267578125,-96.5576171875
29.7393324,-101.7822265625,-51.9384765625,-101.5380859375
29.7689672,-102.5634765625,-51.6455078125,-104.8583984375
29.7962818,-103.2958984375,-50.6689453125,-95.3857421875
29.829619,-104.2236328125,-48.9599609375,-53.9306640625
29.8583153,-105.2978515625,-47.9345703125,-20.8251953125
29.8900929,-107.4951171875,-46.4697265625,-7.7880859375
29.9201113,-107.5439453125,-45.2001953125,-3.4423828125
29.949484,-108.2763671875,-43.7841796875,-3.0517578125
29.975776,-107.4951171875,-44.0771484375,-6.5185546875
30.0101909,-104.6630859375,-43.7353515625,-14.7216796875
30.0374546,-100.8056640625,-42.8076171875,-28.7353515625
30.0711604,-98.5107421875,-42.2216796875,-41.3330078125
30.0989302,-95.6787109375,-42.0263671875,-47.7783203125
30.1283002,-94.3603515625,-41.9775390625,-48.2666015625
30.1602088,-91.7236328125,-42.1728515625,-48.9013671875
30.1952435,-90.6982421875,-42.1240234375,-49.7314453125
30.2234215,-91.5283203125,-42.4658203125,-52.3681640625
30.2520942,-91.2353515625,-42.9052734375,-55.3955078125
30.2790467,-91.7236328125,-43.2470703125,-59.9365234375
30.3145427,-91.6259765625,-43.3447265625,-65.1123046875
30.3414554,-92.1630859375,-44.2724609375,-70.0927734375
30.3692416,-91.9677734375,-44.6630859375,-74.7314453125
30.4035379,-93.0419921875,-45.9326171875,-79.5654296875
30.4328373,-93.9208984375,-46.1279296875,-83.9111328125
30.4631622,-94.3603515625,-45.7373046875,-86.8896484375
30.4935675,-96.3134765625,-47.1044921875,-89.2333984375
30.5206044,-97.6318359375,-47.9833984375,-90.4541015625
30.5580477,-97.7294921875,-48.5205078125,-91.9189453125
30.5840944,-99.2919921875,-48.8134765625,-95.8740234375
30.6124012,-100.4638671875,-49.3994140625,-101.0009765625
30.6445929,-101.0009765625,-49.8388671875,-105.9814453125
30.6739023,-102.1728515625,-48.7158203125,-106.4208984375
30.7017486,-103.0517578125,-45.7373046875,-79.7607421875
30.7354184,-104.3701171875,-45.4443359375,-35.5224609375
30.7631979,-104.6630859375,-43.3935546875,-12.4267578125
30.7913105,-106.4697265625,-41.8310546875,-4.2724609375
30.8243218,-107.4462890625,-41.0009765625,-1.5380859375
30.8539843,-108.0322265625,-40.5126953125,-2.5634765625
30.8818273,-106.4208984375,-40.6103515625,-7.2021484375
30.9152827,-103.0517578125,-39.3896484375,-18.6767578125
30.9447503,-99.6337890625,-38.5107421875,-33.9599609375
30.9762184,-96.4111328125,-38.4130859375,-44.4580078125
31.0035309,-93.5791015625,-38.2666015625,-48.0712890625
31.0368778,-91.6748046875,-37.7294921875,-48.2177734375
31.0675992,-90.6005859375,-37.5830078125,-48.8525390625
31.0949558,-89.9658203125,-37.7783203125,-50.1220703125
31.124326,-90.1123046875,-38.3154296875,-53.9794921875
31.1565348,-90.6982421875,-38.9501953125,-56.9580078125
31.1861351,-89.6240234375,-39.1943359375,-61.5966796875
31.2194602,-90.0634765625,-40.0732421875,-66.7236328125
31.2474404,-90.4541015625,-40.7568359375,-71.8017578125
31.275313,-90.6494140625,-41.4404296875,-77.1240234375
31.303798,-91.8701171875,-42.2705078125,-81.9091796875
31.3362194,-92.0654296875,-42.3193359375,-85.0341796875
31.3654204,-93.4326171875,-42.9052734375,-87.6220703125
31.3970946,-94.6044921875,-43.5888671875,-89.2333984375
31.4264562,-95.3369140625,-43.6865234375,-90.8935546875
31.4554054,-97.1435546875,-44.7119140625,-92.9443359375
31.4885035,-97.5830078125,-45.9326171875,-98.2666015625
31.5178667,-98.6572265625,-46.1767578125,-102.6611328125
31.5448332,-100.2197265625,-45.8349609375,-106.7626953125
31.5812758,-100.7568359375,-44.4677734375,-105.9326171875
31.6081939,-100.8544921875,-42.2705078125,-76.1474609375
31.641058,-102.7587890625,-40.8544921875,-32.2021484375
31.6695044,-103.2470703125,-39.4873046875,-12.0849609375
31.7031649,-104.5166015625,-38.0224609375,-4.6630859375
31.7497803,-106.0302734375,-37.0947265625,-3.3447265625
31.7700328,-105.9326171875,-36.1669921875,-5.0048828125
31.7868805,-105.2490234375,-35.9228515625,-11.4013671875
31.8210895,-101.9287109375,-35.3369140625,-22.4853515625
31.8501415,-99.2431640625,-35.2880859375,-37.1337890625
31.8765469,-96.2646484375,-34.8486328125,-47.0947265625
31.9114656,-94.0185546875,-34.0185546875,-49.6826171875
31.9387227,-92.4072265625,-34.6533203125,-49.8779296875
31.9711798,-90.5029296875,-34.7998046875,-50.4150390625
32.0021484,-90.0634765625,-35.1416015625,-52.5634765625
32.0299931,-91.2353515625,-35.3857421875,-55.7861328125
32.0661549,-91.0400390625,-35.5810546875,-59.3994140625
32.0901585,-91.6748046875,-36.1181640625,-64.0869140625
32.1222398,-90.9423828125,-36.6552734375,-69.2138671875
32.1679707,-90.8447265625,-38.0712890625,-74.0966796875
32.1894705,-91.8212890625,-38.6083984375,-78.8818359375
32.2136255,-92.6513671875,-39.7314453125,-83.6181640625
32.2410917,-93.6767578125,-39.8291015625,-86.7919921875
32.2711999,-94.6044921875,-40.6103515625,-89.0869140625
32.3007258,-96.2158203125,-41.0009765625,-90.0634765625
32.3325236,-96.9482421875,-42.2216796875,-91.7724609375
32.3632803,-98.1201171875,-42.7587890625,-94.8974609375
32.3931456,-99.1455078125,-44.0283203125,-99.7314453125
32.4211563,-100.9033203125,-43.9306640625,-105.0537109375
32.4510561,-101.6357421875,-44.0283203125,-108.5205078125
32.4853048,-102.6611328125,-41.4892578125,-98.2177734375
32.5112283,-102.6123046875,-40.3173828125,-55.6396484375
32.5464689,-104.5654296875,-39.3896484375,-21.8505859375
32.5746176,-105.3955078125,-37.8271484375,-8.7646484375
32.6014274,-106.7626953125,-36.8505859375,-4.7607421875
32.6328438,-108.1787109375,-35.3857421875,-4.3212890625
32.6637673,-107.6904296875,-34.9462890625,-7.9833984375
32.6935169,-105.7373046875,-34.7021484375,-16.1865234375
32.7253426,-103.0029296875,-34.6044921875,-30.5908203125
32.7529944,-99.1455078125,-33.2373046875,-43.9697265625
32.7836209,-97.4853515625,-33.6279296875,-50.2685546875
32.8157566,-95.0439453125,-33.1884765625,-52.1240234375
32.8442896,-92.5048828125,-33.5302734375,-51.8798828125
32.8954819,-92.2119140625,-33.7255859375,-53.2470703125
32.9170109,-92.2119140625,-34.9462890625,-55.7861328125
32.9349227,-91.8701171875,-35.3369140625,-59.3017578125
32.9647611,-92.2119140625,-35.3369140625,-63.9404296875
32.9948261,-92.6513671875,-36.7041015625,-68.4814453125
33.0234929,-92.2607421875,-37.2900390625,-73.9013671875
33.0567341,-93.0419921875,-37.6318359375,-78.4912109375
33.0873716,-92.8955078125,-38.8525390625,-83.5205078125
33.1179183,-94.1650390625,-39.2919921875,-88.1103515625
33.1482866,-94.6044921875,-39.7314453125,-91.7724609375
33.1766148,-95.9228515625,-40.9033203125,-93.6279296875
33.2085275,-97.1435546875,-42.1240234375,-94.7998046875
33.2372602,-97.7783203125,-42.2216796875,-96.5576171875
33.2665458,-98.9501953125,-43.6865234375,-100.5615234375
33.2988808,-99.1455078125,-44.5166015625,-105.5908203125
33.3268982,-100.6591796875,-44.8095703125,-110.1806640625
33.3567055,-102.1728515625,-44.2236328125,-112.9638671875
33.3884993,-102.6611328125,-42.1240234375,-93.1396484375
33.4177456,-102.7587890625,-40.1220703125,-46.3134765625
33.4456811,-104.7607421875,-38.6083984375,-18.2861328125
33.4971848,-105.0048828125,-37.4365234375,-9.1064453125
33.5172942,-106.8115234375,-36.7529296875,-4.6142578125
33.5417391,-107.2998046875,-36.4111328125,-5.1025390625
33.5705932,-106.6650390625,-36.0693359375,-9.2529296875
33.5958958,-105.2978515625,-35.7275390625,-19.2626953125
33.6257932,-101.5869140625,-35.2880859375,-34.7900390625
33.6591567,-97.5341796875,-35.0439453125,-48.0712890625
33.7076698,-95.9716796875,-35.1904296875,-53.7353515625
33.7195882,-93.2861328125,-34.9462890625,-53.9306640625
33.7500689,-91.5283203125,-35.4345703125,-53.0029296875
33.7784114,-90.0146484375,-35.6298828125,-55.2978515625
33.8106534,-89.9658203125,-36.7529296875,-58.3251953125
33.8395572,-90.3564453125,-36.8017578125,-61.6943359375
33.8732189,-89.6728515625,-37.8271484375,-66.3330078125
33.9032067,-89.4287109375,-38.2666015625,-71.1669921875
33.9314724,-89.8193359375,-38.7060546875,-76.6845703125
33.9663761,-89.5263671875,-39.6337890625,-81.6650390625
33.9903256,-90.6005859375,-40.7568359375,-86.6943359375
34.0197314,-91.1865234375,-41.1962890625,-90.6982421875
34.0547376,-91.6259765625,-42.0751953125,-93.8720703125
34.0814145,-92.9443359375,-42.4658203125,-95.9716796875
34.1131152,-93.9208984375,-43.7353515625,-96.9970703125
34.1438118,-94.1162109375,-44.1259765625,-98.8037109375
34.1718597,-96.1181640625,-44.8095703125,-102.6611328125
34.2076321,-96.8994140625,-45.9814453125,-107.3974609375
34.2316942,-97.8759765625,-45.7861328125,-112.2314453125
34.2614353,-98.1689453125,-44.7607421875,-113.3544921875
34.2955637,-98.7060546875,-43.7353515625,-88.3544921875
34.3236179,-99.9755859375,-42.8076171875,-42.0166015625
34.3528417,-100.9521484375,-41.6845703125,-16.9189453125
34.3848727,-101.8798828125,-40.5615234375,-9.6435546875
34.4137041,-103.8330078125,-39.1943359375,-6.2744140625
34.4408565,-104.0283203125,-38.8525390625,-7.2998046875
34.4767536,-103.5400390625,-39.2919921875,-12.1337890625
34.5026315,-101.9287109375,-38.3154296875,-22.2900390625
34.5358549,-98.5595703125,-38.4619140625,-37.2802734375
34.5647956,-94.9462890625,-37.7294921875,-48.8037109375
34.5949321,-92.5537109375,-38.4130859375,-53.2470703125
34.6251421,-90.0146484375,-38.0712890625,-53.6865234375
34.6544018,-88.2080078125,-38.3642578125,-54.2724609375
34.6876034,-87.1337890625,-39.2431640625,-55.5419921875
34.7173874,-87.4267578125,-39.3896484375,-58.5693359375
34.7441694,-88.7451171875,-40.1220703125,-62.8173828125
34.7813327,-88.0615234375,-40.9033203125,-66.6748046875
34.8065047,-89.3310546875,-41.2939453125,-71.6064453125
34.8338223,-88.8427734375,-42.4658203125,-75.9521484375
34.8711328,-88.7451171875,-42.3193359375,-81.7138671875
34.8972752,-89.5751953125,-43.7353515625,-86.4013671875
34.9248458,-89.5751953125,-44.7607421875,-89.7705078125
34.9705402,-90.4052734375,-45.2978515625,-92.7490234375
34.9891576,-91.5771484375,-45.8349609375,-94.4091796875
35.0152435,-91.7724609375,-47.3974609375,-95.7763671875
35.0521931,-93.1884765625,-47.7392578125,-97.9736328125
35.0776115,-93.7744140625,-49.0576171875,-102.6123046875
35.1132573,-94.8974609375,-49.2529296875,-107.6904296875
35.1384551,-95.7763671875,-48.4716796875,-111.8408203125
35.1661541,-96.6552734375,-47.3974609375,-108.5205078125
35.2009736,-97.3388671875,-46.1767578125,-72.5341796875
35.2274618,-97.7294921875,-46.2255859375,-31.3720703125
35.2568768,-98.8037109375,-44.0771484375,-13.9404296875
35.2935781,-100.5615234375,-43.8330078125,-7.6904296875
35.3176667,-101.6845703125,-42.6123046875,-6.9091796875
35.3465143,-101.4892578125,-42.0263671875,-8.7158203125
35.3794087,-101.9287109375,-42.5634765625,-15.3564453125
35.4090648,-99.3896484375,-41.3916015625,-28.1494140625
35.4412731,-96.1669921875,-41.0986328125,-43.1884765625
35.4704587,-93.2373046875,-41.4404296875,-52.5146484375
35.4997159,-91.3330078125,-40.8544921875,-55.2001953125
35.5308557,-88.4521484375,-41.4892578125,-54.9560546875
35.5599111,-87.4755859375,-41.9775390625,-55.2978515625
35.5894591,-86.4990234375,-41.8310546875,-58.1787109375
35.6247815,-86.6943359375,-43.1494140625,-60.8154296875
35.6498005,-87.0849609375,-43.3447265625,-64.6728515625
35.6790192,-86.9384765625,-44.2236328125,-68.8720703125
35.7186879,-87.8173828125,-44.3212890625,-74.3896484375
35.7405984,-87.1826171875,-44.9072265625,-79.4677734375
35.768929,-87.8173828125,-45.8837890625,-84.9853515625
35.8029343,-88.6962890625,-46.2744140625,-89.5263671875
35.8295136,-89.5751953125,-47.4951171875,-92.4072265625
35.8739548,-90.6494140625,-47.7880859375,-94.5556640625
35.8913473,-91.4306640625,-48.9111328125,-96.4599609375
35.9207627,-92.6513671875,-49.4970703125,-98.0224609375
35.9547582,-93.4814453125,-49.9365234375,-102.4658203125
35.9813181,-94.4580078125,-50.7177734375,-107.2509765625
36.0312734,-95.4345703125,-51.8896484375,-111.7919921875
36.0438513,-96.4111328125,-50.5224609375,-113.8427734375
36.0710092,-97.2412109375,-49.0087890625,-91.4306640625
36.1039871,-98.7060546875,-48.0322265625,-44.4091796875
36.1335,-99.1943359375,-47.7392578125,-18.2373046875
36.1619374,-100.4638671875,-45.5908203125,-9.4970703125
36.1997354,-101.6357421875,-44.8095703125,-6.8603515625
36.2233809,-102.8564453125,-44.1748046875,-7.2998046875
36.2670797,-103.2470703125,-44.5654296875,-11.6455078125
36.2853169,-102.2705078125,-44.2724609375,-22.2900390625
36.314901,-98.7060546875,-43.2470703125,-37.1826171875
36.3628794,-95.1904296875,-42.8564453125,-49.2919921875
36.3755418,-92.1630859375,-42.6611328125,-54.6142578125
36.4051485,-89.6240234375,-42.5146484375,-54.8095703125
36.4366553,-87.3779296875,-43.2958984375,-54.7119140625
36.486095,-85.6201171875,-43.9306640625,-56.0302734375
36.5051766,-85.1318359375,-44.1259765625,-59.0576171875
36.523574,-85.9619140625,-44.9072265625,-62.8173828125
36.5557132,-86.3037109375,-45.0048828125,-67.0166015625
36.5846925,-86.4501953125,-46.0302734375,-72.2900390625
36.6260637,-86.8896484375,-47.0556640625,-77.3193359375
36.6456595,-86.6455078125,-46.9091796875,-82.7392578125
36.6735156,-87.7197265625,-48.3740234375,-86.8408203125
36.7065866,-88.2080078125,-48.2275390625,-91.2353515625
36.734944,-89.2822265625,-49.4970703125,-94.2138671875
36.7659165,-90.0146484375,-49.8388671875,-96.4599609375
36.796841,-91.1865234375,-51.0595703125,-96.9970703125
36.8256424,-92.0166015625,-51.1572265625,-99.4384765625
36.8627389,-92.7001953125,-52.1826171875,-103.9794921875
36.9046126,-93.8232421875,-52.3779296875,-108.8623046875
36.9257926,-94.7998046875,-52.5244140625,-113.7451171875
36.9491006,-96.1181640625,-50.9619140625,-111.8408203125
36.9771399,-96.8994140625,-49.3017578125,-76.6845703125
37.0057896,-97.6318359375,-48.3740234375,-33.5205078125
37.0382833,-98.8037109375,-47.4951171875,-13.9404296875
37.0669842,-100.0244140625,-47.0556640625,-7.1533203125
37.0961899,-101.1474609375,-45.4443359375,-4.8583984375
37.1297246,-102.2216796875,-45.2978515625,-6.3232421875
37.1567535,-102.6123046875,-45.0537109375,-11.9873046875
37.1939211,-101.0986328125,-44.6630859375,-24.8779296875
37.218464,-98.1201171875,-44.1748046875,-40.1123046875
37.2466224,-94.7021484375,-43.7353515625,-50.1220703125
37.2803258,-91.9677734375,-43.2958984375,-52.4169921875
37.3277995,-89.7705078125,-43.7353515625,-52.7099609375
37.3490993,-87.3779296875,-43.8330078125,-52.8564453125
37.3705293,-86.0595703125,-44.8583984375,-55.0537109375
37.3985129,-86.0107421875,-44.7607421875,-57.9833984375
37.4310637,-85.8154296875,-44.5654296875,-61.5478515625
37.4611098,-86.5966796875,-45.3466796875,-65.8447265625
37.4902536,-86.9873046875,-45.6396484375,-70.8251953125
37.5175063,-86.4990234375,-46.2255859375,-75.4638671875
37.5518998,-87.0361328125,-47.2509765625,-80.5419921875
37.5790654,-87.1826171875,-47.6416015625,-84.4970703125
37.612305,-88.2080078125,-48.3251953125,-87.9150390625
37.6421083,-89.3310546875,-49.2041015625,-90.1123046875
37.6690995,-90.1611328125,-48.9599609375,-91.1376953125
37.702487,-91.2353515625,-49.7900390625,-93.4814453125
37.7299484,-92.6513671875,-50.5712890625,-96.6064453125
37.7593115,-93.1884765625,-51.5966796875,-101.0009765625
37.7923456,-94.7509765625,-51.6455078125,-105.8349609375
37.8203194,-95.1416015625,-50.3759765625,-107.5927734375
37.8533246,-96.8994140625,-48.5693359375,-91.7724609375
37.8823366,-97.5830078125,-47.8857421875,-45.9228515625
37.9119173,-98.3154296875,-46.6162109375,-17.4560546875
37.9415221,-99.4384765625,-45.7373046875,-7.7392578125
37.9724326,-100.6591796875,-44.3212890625,-3.7841796875
38.000644,-102.2216796875,-43.3935546875,-4.1748046875
38.0346298,-103.0517578125,-43.7353515625,-7.8857421875
38.0643188,-102.1240234375,-43.1982421875,-16.9677734375
38.0908159,-99.6826171875,-42.0263671875,-31.7626953125
38.1244214,-97.2412109375,-41.6845703125,-43.3837890625
38.1526573,-93.6767578125,-41.3427734375,-48.1689453125
38.1871966,-90.8447265625,-41.3427734375,-48.6083984375
38.2304366,-89.2333984375,-41.1962890625,-48.7060546875
38.2519168,-87.5244140625,-41.5380859375,-50.3173828125
38.2719063,-86.2548828125,-41.7333984375,-52.7099609375
38.3039347,-87.0361328125,-41.8798828125,-56.1767578125
38.3332846,-87.5244140625,-42.4169921875,-60.7177734375
38.3667211,-87.5244140625,-43.1494140625,-64.9169921875
38.3957048,-86.8408203125,-43.3935546875,-69.6044921875
38.4228685,-86.9873046875,-44.1259765625,-74.3408203125
38.4574264,-87.5732421875,-44.5654296875,-77.4169921875
38.4840388,-88.4033203125,-45.5908203125,-81.5185546875
38.5133848,-89.7216796875,-45.7373046875,-82.6416015625
38.5471567,-90.0634765625,-46.0791015625,-84.4482421875
38.5757627,-91.4306640625,-46.4208984375,-86.5478515625
38.6070104,-92.1630859375,-47.4462890625,-89.9169921875
38.6367131,-93.4814453125,-48.0810546875,-94.8486328125
38.6640879,-94.5068359375,-47.9833984375,-98.9990234375
38.6990085,-94.8974609375,-46.4208984375,-99.4873046875
38.7278325,-95.6787109375,-44.5654296875,-75.9521484375
38.7552379,-96.8994140625,-43.2958984375,-33.4228515625
38.7874002,-97.5830078125,-41.8798828125,-10.9619140625
38.8174294,-99.0966796875,-40.9033203125,-2.0751953125
38.8465195,-100.1708984375,-39.1455078125,1.1962890625
38.8781749,-101.4892578125,-38.1201171875,0.7080078125
38.9074267,-102.9541015625,-37.7294921875,-3.5888671875
38.9405807,-101.4404296875,-36.6064453125,-13.9892578125
38.9673484,-99.3408203125,-36.9970703125,-29.1259765625
38.9960019,-96.3623046875,-37.0947265625,-39.4287109375
39.0300251,-93.5302734375,-36.5576171875,-42.6513671875
39.0586471,-90.7470703125,-35.9716796875,-42.9931640625
39.0954635,-88.2568359375,-36.5576171875,-43.7255859375
39.1188375,-86.1572265625,-36.9482421875,-44.8974609375
39.1482139,-84.8876953125,-37.5341796875,-47.8759765625
39.1844113,-85.9130859375,-37.2412109375,-51.9287109375
39.2091706,-85.6689453125,-38.8037109375,-55.9814453125
39.2447566,-85.5712890625,-38.2666015625,-61.4501953125
39.2713875,-85.6201171875,-39.2431640625,-65.8447265625
39.3081231,-85.9619140625,-40.0732421875,-70.0439453125
39.3290746,-86.3525390625,-40.2685546875,-73.9990234375
39.3622216,-86.8408203125,-41.2451171875,-77.5634765625
39.3988274,-87.4755859375,-41.8310546875,-79.8583984375
39.4180731,-89.1845703125,-42.1240234375,-81.9580078125
39.456722,-89.9658203125,-42.8564453125,-83.7646484375
39.4789978,-91.1376953125,-44.1748046875,-87.1337890625
39.516128,-92.6025390625,-44.7607421875,-92.4072265625
39.542038,-93.2373046875,-44.1259765625,-96.5576171875
39.5702753,-94.1650390625,-42.1728515625,-93.3837890625
39.6026735,-95.4833984375,-40.9521484375,-58.1298828125
39.6328488,-96.1669921875,-40.0732421875,-19.7998046875
39.6597043,-96.5087890625,-37.9248046875,-3.1982421875
39.6962274,-98.0712890625,-36.5576171875,4.1748046875
39.7232377,-99.7314453125,-34.8486328125,6.4208984375
39.750693,-100.3173828125,-34.7509765625,5.4931640625
39.7866124,-101.0498046875,-33.2861328125,-0.2685546875
39.8116854,-100.6591796875,-33.6767578125,-11.4990234375
39.846452,-97.8759765625,-32.3095703125,-24.0478515625
39.8740557,-94.6044921875,-32.0166015625,-31.6650390625
39.9034484,-91.2841796875,-32.1630859375,-34.0576171875
39.9320323,-88.2080078125,-31.2353515625,-35.3271484375
39.9629012,-86.3525390625,-32.4072265625,-36.1572265625
39.9981609,-84.6435546875,-32.4560546875,-39.1357421875
40.0248344,-83.0810546875,-33.0908203125,-42.5048828125
40.0529093,-83.0810546875,-33.6767578125,-46.2158203125
40.0893295,-83.2763671875,-33.9208984375,-50.8056640625
40.1159372,-83.3251953125,-35.3369140625,-55.9326171875
40.1433386,-83.1298828125,-35.3369140625,-60.7177734375
40.1816798,-83.7646484375,-36.5576171875,-65.3076171875
40.2057903,-84.5458984375,-37.3388671875,-69.3115234375
40.2331384,-85.1806640625,-38.0712890625,-71.5576171875
40.2702611,-85.3759765625,-38.7060546875,-73.0224609375
40.2963961,-86.8408203125,-39.7314453125,-74.9755859375
40.3236916,-88.2080078125,-40.1708984375,-78.1982421875
40.3591234,-88.6962890625,-41.1474609375,-82.5439453125
40.3866394,-89.8681640625,-41.3916015625,-86.4501953125
40.4185351,-91.4794921875,-40.4150390625,-89.9658203125
40.4477566,-91.7236328125,-39.1943359375,-78.9794921875
40.4750519,-91.7236328125,-37.3876953125,-38.7939453125
40.5218228,-93.2861328125,-35.5322265625,-8.5693359375
40.5359347,-93.5791015625,-34.6044921875,4.4677734375
40.5723098,-95.3857421875,-34.0673828125,9.1552734375
40.5984048,-97.1923828125,-32.2119140625,10.1318359375
40.6262702,-98.8525390625,-32.1142578125,8.3740234375
40.6638563,-99.6337890625,-31.8212890625,0.3173828125
40.6886762,-98.4130859375,-31.7724609375,-12.4755859375
40.7243059,-95.7275390625,-30.3564453125,-23.7060546875
40.7507225,-93.1396484375,-31.5771484375,-29.1259765625
40.7798625,-89.5751953125,-31.4794921875,-30.6396484375
40.8083174,-87.3779296875,-31.5283203125,-31.5185546875
40.8483411,-85.0830078125,-32.1630859375,-32.8369140625
40.8687078,-82.8857421875,-32.4560546875,-36.0595703125
40.903784,-82.4462890625,-33.0908203125,-39.0380859375
40.9297994,-83.0810546875,-33.9697265625,-43.1396484375
40.9649398,-82.8369140625,-34.2626953125,-48.0712890625
40.9880256,-83.1298828125,-35.4345703125,-52.1240234375
41.0251187,-82.5927734375,-35.8251953125,-57.2509765625
41.0552714,-83.3251953125,-36.2158203125,-60.9619140625
41.0820246,-83.4228515625,-37.4853515625,-64.0380859375
41.1188419,-84.3017578125,-37.8271484375,-65.8935546875
41.1401912,-85.3271484375,-39.1455078125,-67.2607421875
41.1770966,-87.0849609375,-39.9267578125,-69.8486328125
41.1989593,-87.6220703125,-41.1962890625,-73.7548828125
41.2378195,-88.4033203125,-41.5380859375,-78.5400390625
41.2609608,-89.0869140625,-41.4892578125,-81.4697265625
41.2979812,-90.9423828125,-39.9267578125,-80.2001953125
41.3185814,-91.7236328125,-38.2666015625,-48.9990234375
41.3558515,-92.2119140625,-37.1923828125,-11.3525390625
41.3796919,-93.9697265625,-35.8740234375,5.5908203125
41.421086,-94.7021484375,-34.1650390625,13.4521484375
41.4422173,-96.0693359375,-33.5791015625,16.8212890625
41.4715848,-97.0458984375,-32.7490234375,15.2587890625
41.5027128,-97.8271484375,-32.7001953125,10.6689453125
41.5315884,-98.2177734375,-32.7978515625,-0.6591796875
41.5616479,-96.8017578125,-32.5537109375,-15.0634765625
41.5987506,-93.3349609375,-32.3095703125,-22.9248046875
41.6204965,-89.9658203125,-31.5283203125,-25.5126953125
41.6593422,-87.0361328125,-31.8701171875,-25.7080078125
41.6828635,-84.7412109375,-33.1396484375,-26.8310546875
41.7129974,-81.8603515625,-33.1396484375,-29.6142578125
41.7506624,-80.4931640625,-33.8232421875,-32.3974609375
41.7720714,-80.4443359375,-34.2626953125,-36.3525390625
41.809713,-82.2509765625,-34.9462890625,-40.7958984375
41.834713,-81.2255859375,-35.7763671875,-45.3369140625
41.8717624,-80.6396484375,-37.2412109375,-49.8291015625
41.8930223,-80.9326171875,-37.8271484375,-54.7119140625
41.9299379,-81.9580078125,-38.6083984375,-57.6904296875
41.9522031,-82.4951171875,-40.0732421875,-60.5224609375
41.992039,-83.0322265625,-40.5126953125,-62.1337890625
42.0149573,-84.2041015625,-40.8056640625,-64.3310546875
42.0444732,-85.5712890625,-42.0263671875,-68.4326171875
42.0809447,-86.5478515625,-43.3447265625,-72.8271484375
42.1055697,-87.5732421875,-43.0029296875,-77.0263671875
42.1337417,-89.1357421875,-40.9033203125,-75.8544921875
42.1699315,-89.9169921875,-39.6337890625,-46.4599609375
42.1967848,-90.8447265625,-38.3154296875,-8.3740234375
42.2263036,-92.0166015625,-37.0947265625,8.7158203125
42.2629359,-93.1396484375,-35.7763671875,17.3583984375
42.2852766,-93.9697265625,-35.5322265625,20.2392578125
42.3230054,-95.5810546875,-34.0185546875,19.3603515625
42.3483175,-97.1435546875,-34.1162109375,14.5751953125
42.3754593,-97.3876953125,-33.9208984375,2.8564453125
42.4128033,-96.4599609375,-33.8232421875,-11.7431640625
42.4391112,-93.0908203125,-33.4326171875,-20.5810546875
42.4671424,-89.8193359375,-33.7255859375,-23.2177734375
42.5034285,-86.7919921875,-33.3837890625,-23.6572265625
42.5290908,-84.0087890625,-34.1162109375,-24.3408203125
42.5561833,-81.4697265625,-34.2626953125,-26.9287109375
42.5928957,-79.9072265625,-34.7509765625,-30.1025390625
42.617097,-79.7119140625,-36.0205078125,-34.0087890625
42.6534236,-80.3955078125,-36.4599609375,-39.0869140625
42.6804799,-80.4931640625,-37.3388671875,-43.5791015625
42.7074682,-80.2978515625,-38.9990234375,-48.5107421875
42.7364526,-80.0048828125,-38.9990234375,-53.5888671875
42.7712873,-80.7861328125,-40.4638671875,-57.2998046875
42.7973057,-81.7626953125,-39.8291015625,-60.0341796875
42.8369036,-82.2021484375,-41.8310546875,-61.4990234375
42.8608182,-83.7158203125,-42.6123046875,-63.2080078125
42.8885998,-84.6923828125,-43.3935546875,-66.8701171875
42.9229881,-85.9130859375,-44.2236328125,-71.1181640625
42.9499408,-87.9150390625,-45.2978515625,-75.7080078125
42.977944,-89.2822265625,-44.0771484375,-78.8818359375
43.0117661,-89.9169921875,-42.3681640625,-62.6220703125
43.0406621,-90.9423828125,-40.7080078125,-19.7021484375
43.068286,-91.8212890625,-39.4873046875,5.9326171875
43.1016736,-93.2373046875,-38.4130859375,17.0654296875
43.1302582,-94.3115234375,-37.4365234375,22.6318359375
43.1576941,-95.8251953125,-36.0205078125,23.2666015625
43.1915148,-97.2412109375,-36.3623046875,20.1904296875
43.2218626,-98.0224609375,-35.8251953125,12.2802734375
43.253586,-97.8759765625,-35.2880859375,-2.3193359375
43.2815439,-95.5322265625,-35.2880859375,-15.1611328125
43.311313,-92.2607421875,-35.5322265625,-19.7998046875
43.3418189,-89.0869140625,-36.0205078125,-20.0439453125
43.3724448,-85.6201171875,-35.5322265625,-20.6298828125
43.4002074,-83.1298828125,-35.9228515625,-22.5341796875
43.4337747,-80.8837890625,-36.6064453125,-25.6591796875
43.4624442,-79.3212890625,-37.4853515625,-29.2236328125
43.4908489,-78.9306640625,-38.5107421875,-33.3740234375
43.5239361,-80.3466796875,-38.9990234375,-39.4775390625
43.5518756,-80.4443359375,-39.8291015625,-43.5791015625
43.5838189,-80.0048828125,-40.6591796875,-48.6083984375
43.6136467,-80.1513671875,-41.2939453125,-52.6123046875
43.641832,-81.0302734375,-42.3681640625,-56.3232421875
43.6753732,-81.9580078125,-43.1982421875,-57.6904296875
43.7041342,-83.1787109375,-43.4423828125,-59.5947265625
43.7326015,-85.1806640625,-45.4443359375,-61.8896484375
43.7639253,-85.6689453125,-45.4443359375,-65.6982421875
43.7923625,-87.5244140625,-46.1767578125,-70.7275390625
43.8272912,-88.8916015625,-46.2744140625,-74.7314453125
43.8545663,-89.6240234375,-44.1748046875,-72.8759765625
43.8829272,-90.8447265625,-43.0517578125,-40.9423828125
43.9119222,-91.9189453125,-41.3427734375,-3.2470703125
43.9462632,-92.9443359375,-39.9755859375,14.4287109375
43.9745557,-93.9697265625,-39.8779296875,22.2412109375
44.0069329,-95.4345703125,-38.8525390625,25.1708984375
44.0355319,-97.1923828125,-38.5107421875,25.0244140625
44.0639444,-98.1201171875,-37.8271484375,19.4580078125
44.0971225,-99.0478515625,-37.6318359375,8.2275390625
44.1261285,-98.3154296875,-37.4853515625,-4.6142578125
44.1592903,-95.3857421875,-37.8759765625,-12.3291015625
44.1862026,-91.6748046875,-37.3876953125,-14.3798828125
44.215956,-88.9404296875,-37.8759765625,-15.7470703125
44.2444667,-86.5966796875,-38.2177734375,-16.9677734375
44.2984212,-83.2275390625,-38.8037109375,-19.9951171875
44.303371,-81.0791015625,-39.3408203125,-23.2666015625
44.3379123,-79.7607421875,-40.0732421875,-27.1240234375
44.3743731,-81.0302734375,-40.3173828125,-31.6162109375
44.3943498,-80.9814453125,-41.7333984375,-37.1826171875
44.427585,-81.5673828125,-42.6123046875,-41.7236328125
44.4637658,-81.3232421875,-43.4423828125,-45.6298828125
44.4909847,-81.9091796875,-43.3935546875,-50.3662109375
44.5178269,-82.2021484375,-44.0771484375,-52.1728515625
44.5552626,-83.2275390625,-45.5419921875,-54.1748046875
44.5798564,-84.3994140625,-45.9814453125,-56.0302734375
44.6186499,-85.9130859375,-46.7626953125,-58.8623046875
44.6376475,-87.0849609375,-46.7626953125,-63.2080078125
44.6752001,-88.6962890625,-47.2998046875,-68.2861328125
44.6966419,-89.7705078125,-46.5673828125,-70.6298828125
44.736832,-91.1376953125,-44.5654296875,-53.8818359375
44.7607426,-92.2607421875,-44.0283203125,-12.0361328125
44.7961997,-93.3349609375,-43.9306640625,12.5244140625
44.8186323,-94.2626953125,-42.2216796875,23.4130859375
44.8554181,-95.0927734375,-41.7822265625,28.5888671875
44.8786267,-97.1435546875,-39.9267578125,29.4189453125
44.9157966,-98.8525390625,-39.4873046875,27.0263671875
44.9381431,-100.3662109375,-39.4384765625,18.9208984375
44.9757599,-99.3408203125,-39.3408203125,5.0048828125
45.0058586,-98.3154296875,-38.5595703125,-5.6396484375
45.0319037,-95.1416015625,-38.8525390625,-10.5712890625
45.0677565,-91.4306640625,-38.9013671875,-11.4013671875
45.0915899,-88.7451171875,-38.9990234375,-12.3779296875
45.126816,-85.8642578125,-39.7314453125,-14.5263671875
45.1471744,-83.3740234375,-40.5126953125,-18.0419921875
45.1890355,-82.0068359375,-40.9033203125,-22.1435546875
45.2095082,-81.6162109375,-41.7333984375,-26.5869140625
45.2437898,-82.6416015625,-43.3935546875,-32.1533203125
45.2715294,-83.0810546875,-43.5888671875,-37.2802734375
45.3106373,-82.3486328125,-44.0283203125,-41.7724609375
45.3307946,-82.4462890625,-44.7119140625,-46.4599609375
45.3700132,-83.3251953125,-45.0048828125,-50.1220703125
45.3913849,-84.4482421875,-45.9326171875,-52.2216796875
45.4270192,-85.5224609375,-47.4462890625,-53.1494140625
45.4523113,-86.6943359375,-48.2275390625,-55.8837890625
45.4892333,-88.2080078125,-49.0576171875,-60.0830078125
45.5129394,-89.0380859375,-49.9853515625,-64.7705078125
45.550177,-90.1123046875,-49.6923828125,-68.5302734375
45.5755078,-91.4306640625,-48.1298828125,-67.3095703125
45.6116693,-93.0419921875,-46.9580078125,-34.6435546875
45.634295,-93.7744140625,-45.3466796875,3.7353515625
45.6710987,-95.3369140625,-44.7119140625,20.5810546875
45.6949569,-96.6552734375,-42.8564453125,29.5166015625
45.742802,-97.4365234375,-42.5634765625,33.2763671875
45.7557264,-99.2919921875,-41.3427734375,32.7392578125
45.7839801,-101.1474609375,-41.8310546875,28.6865234375
45.8234746,-101.9287109375,-41.0498046875,16.8701171875
45.8450846,-101.9775390625,-40.9521484375,4.1259765625
45.8810013,-99.6337890625,-40.7080078125,-4.9072265625
45.9074797,-95.8740234375,-40.4150390625,-7.9833984375
45.9437301,-92.7001953125,-41.1962890625,-8.2275390625
45.965053,-89.9169921875,-41.8310546875,-9.5947265625
46.0079695,-86.6455078125,-42.2705078125,-12.4755859375
46.038328,-84.3994140625,-42.5634765625,-15.8935546875
46.0553461,-82.5439453125,-42.8076171875,-20.1904296875
46.094478,-82.4951171875,-43.6865234375,-25.1708984375
46.1143932,-84.1064453125,-44.8583984375,-29.8095703125
46.1505785,-83.7646484375,-45.9814453125,-35.5712890625
46.1782054,-83.9599609375,-45.9326171875,-40.2587890625
46.2134498,-84.1064453125,-46.5673828125,-44.5556640625
46.2339193,-84.2529296875,-47.2509765625,-47.2900390625
46.269038,-84.8876953125,-48.4228515625,-49.5361328125
46.296755,-85.9619140625,-48.9599609375,-50.6591796875
46.3354589,-87.4755859375,-50.2783203125,-53.6865234375
46.3585061,-89.8193359375,-50.8154296875,-58.6669921875
46.3948961,-90.4541015625,-52.0361328125,-63.3056640625
46.4195513,-91.8212890625,-51.4990234375,-67.8466796875
46.454847,-93.1396484375,-49.3505859375,-64.4775390625
46.4831063,-93.7744140625,-48.1298828125,-30.4931640625
46.5180848,-95.1904296875,-47.5927734375,7.0068359375
46.538428,-96.5576171875,-45.9326171875,23.9990234375
46.5777529,-97.4365234375,-44.7607421875,32.3974609375
46.5990769,-98.7548828125,-43.2470703125,35.3271484375
46.6359174,-100.1708984375,-42.9541015625,35.1318359375
46.6703329,-101.2451171875,-42.9052734375,30.0537109375
46.6903727,-102.5146484375,-42.6123046875,18.2373046875
46.7409944,-102.3193359375,-42.5146484375,4.9072265625
46.7609552,-99.8779296875,-41.9287109375,-3.3447265625
46.7788222,-96.9482421875,-41.4892578125,-5.6396484375
46.8164663,-93.6279296875,-41.7333984375,-6.3720703125
46.8420108,-90.2099609375,-42.6123046875,-8.0322265625
46.8783897,-87.4755859375,-42.5634765625,-10.3759765625
46.8991876,-84.8388671875,-42.6611328125,-14.2822265625
46.9443201,-83.1298828125,-43.3447265625,-17.9931640625
46.9650686,-84.0576171875,-43.8818359375,-23.4130859375
46.994254,-84.5458984375,-44.4677734375,-28.5888671875
47.0323218,-84.5458984375,-45.6396484375,-32.6416015625
47.04967,-84.5458984375,-45.7373046875,-38.3544921875
47.0871212,-84.7412109375,-47.1044921875,-42.7490234375
47.1112398,-85.5712890625,-47.4462890625,-45.4345703125
47.146506,-86.1083984375,-48.2763671875,-47.7294921875
47.1743518,-87.2314453125,-48.8623046875,-48.9501953125
47.2021834,-88.2568359375,-49.5947265625,-51.3916015625
47.2412702,-89.3310546875,-50.3271484375,-55.6884765625
47.2612982,-91.0400390625,-51.5478515625,-60.5224609375
47.302007,-92.0166015625,-51.5966796875,-64.9658203125
47.3238583,-93.8720703125,-49.2529296875,-62.6220703125
47.3605414,-94.9951171875,-47.7392578125,-29.5654296875
47.3819531,-96.0693359375,-46.8603515625,7.8369140625
47.4203077,-97.2900390625,-45.6884765625,25.2197265625
47.4421791,-98.0224609375,-44.0771484375,33.0322265625
47.4770567,-99.4384765625,-42.5146484375,35.7666015625
47.5075068,-100.9521484375,-42.0751953125,34.6923828125
47.5335873,-102.7587890625,-43.0517578125,30.1025390625
47.5688842,-104.2724609375,-41.5869140625,17.2607421875
47.5945951,-104.0771484375,-40.8544921875,3.9794921875
47.6340877,-101.8310546875,-40.2197265625,-4.2236328125
47.6573818,-99.2431640625,-41.0009765625,-6.3232421875
47.6845614,-95.1416015625,-40.9033203125,-7.9345703125
47.7225285,-92.4560546875,-41.1962890625,-9.0087890625
47.7453021,-89.7216796875,-41.4892578125,-12.4755859375
47.7758603,-87.6220703125,-42.1728515625,-15.7470703125
47.8035013,-85.6201171875,-42.9052734375,-19.3603515625
47.8386868,-85.2783203125,-42.8076171875,-24.8291015625
47.8644704,-86.6455078125,-43.4912109375,-29.7607421875
47.901758,-86.6455078125,-44.5166015625,-35.0341796875
47.9308595,-86.6943359375,-45.1025390625,-39.4775390625
47.955442,-86.0107421875,-45.4443359375,-43.8720703125
47.9878377,-86.9873046875,-46.9091796875,-46.5576171875
48.0178913,-87.6708984375,-47.1044921875,-48.4619140625
48.0455801,-88.9404296875,-47.7392578125,-50.7080078125
48.0781824,-89.9169921875,-48.9111328125,-53.3935546875
48.1068485,-91.6259765625,-49.6923828125,-57.9833984375
48.1372676,-92.5048828125,-50.0830078125,-62.0849609375
48.1748121,-94.4580078125,-49.3505859375,-66.4794921875
48.1947645,-95.2392578125,-47.9833984375,-58.4716796875
48.2286247,-96.6552734375,-46.0791015625,-18.4326171875
48.257638,-97.7783203125,-44.8095703125,14.1845703125
48.2883632,-98.4619140625,-43.6865234375,27.8564453125
48.3167597,-99.6826171875,-42.1240234375,34.2041015625
48.352061,-101.5869140625,-40.9033203125,35.9130859375
48.3781455,-103.0517578125,-40.9033203125,33.6181640625
48.4104703,-104.0771484375,-39.9755859375,27.4169921875
48.4383617,-105.4931640625,-40.3173828125,14.3798828125
48.4669766,-105.0048828125,-39.1455078125,1.3427734375
48.5036046,-103.5888671875,-38.9501953125,-5.1513671875
48.5297349,-100.3662109375,-38.7548828125,-6.1279296875
48.5606651,-97.4365234375,-39.0966796875,-7.5927734375
48.5910611,-93.5302734375,-40.2685546875,-9.3505859375
48.6184332,-91.1376953125,-40.0244140625,-12.6220703125
48.6477605,-88.7939453125,-41.1474609375,-16.0888671875
48.6813512,-86.9384765625,-41.7333984375,-21.0693359375
48.7092971,-87.7685546875,-42.7099609375,-26.2939453125
48.7419538,-88.0615234375,-43.2470703125,-31.6650390625
48.7716066,-87.6220703125,-43.5888671875,-36.5966796875
48.7997065,-87.7197265625,-44.2724609375,-41.0888671875
48.8318225,-87.8662109375,-44.8095703125,-45.5322265625
48.8621652,-89.0380859375,-45.2978515625,-47.5830078125
48.8936559,-89.3798828125,-46.4208984375,-49.5849609375
48.9228177,-90.3076171875,-47.1044921875,-52.0263671875
48.9498403,-91.2353515625,-48.0810546875,-54.5166015625
48.9824698,-92.2607421875,-49.0087890625,-59.4970703125
49.0121493,-94.1162109375,-48.9111328125,-63.7939453125
49.0391632,-95.4833984375,-48.3740234375,-68.1884765625
49.0735893,-95.6298828125,-46.3232421875,-55.6396484375
49.1031736,-98.1689453125,-44.2724609375,-13.7939453125
49.1305404,-98.3154296875,-43.4912109375,16.3818359375
49.1640475,-99.7314453125,-42.8076171875,28.2470703125
49.191156,-101.0498046875,-41.6845703125,34.5458984375
49.2200138,-101.8310546875,-39.7802734375,36.2548828125
49.2545663,-104.1748046875,-39.0966796875,34.3994140625
49.2819334,-105.2001953125,-38.3642578125,26.5869140625
49.3152497,-106.0302734375,-38.0712890625,13.4521484375
49.3453898,-106.6162109375,-37.7294921875,0.1708984375
49.3714167,-104.5166015625,-37.1923828125,-4.8583984375
49.4049251,-100.7568359375,-37.8271484375,-5.9814453125
49.4344855,-97.6806640625,-37.6318359375,-7.0068359375
49.4631699,-94.5068359375,-38.1201171875,-8.9599609375
49.4949308,-91.5283203125,-38.7548828125,-11.6455078125
49.523824,-88.7939453125,-39.0478515625,-15.7470703125
49.5517578,-87.2802734375,-40.3662109375,-20.3369140625
49.5865039,-86.7431640625,-40.6591796875,-24.9267578125
49.6150289,-87.6708984375,-41.3427734375,-29.7607421875
49.6560759,-86.9384765625,-42.5146484375,-35.1806640625
49.6755221,-87.4267578125,-42.5146484375,-39.0869140625
49.7159886,-87.6708984375,-43.7841796875,-43.5302734375
49.7372758,-87.7197265625,-44.1259765625,-46.0205078125
49.7893539,-89.1845703125,-45.2490234375,-48.0224609375
49.7926907,-89.6728515625,-46.3720703125,-49.1943359375
49.825613,-90.6494140625,-47.0068359375,-52.2705078125
49.868144,-92.5537109375,-47.3486328125,-56.4208984375
49.8855316,-93.4326171875,-48.2763671875,-60.4248046875
49.9164322,-94.7509765625,-48.2763671875,-65.2587890625
49.9601823,-96.1181640625,-46.2744140625,-61.5478515625
49.9822149,-97.0947265625,-44.4677734375,-26.5869140625
50.0080117,-97.8271484375,-43.1005859375,10.5712890625
50.0497973,-99.1943359375,-41.6357421875,25.4150390625
50.065767,-100.3173828125,-40.1708984375,32.2998046875
50.0995175,-101.2451171875,-38.4619140625,35.7666015625
50.138731,-103.1005859375,-38.0712890625,34.6435546875
50.1599999,-104.0771484375,-37.5830078125,28.7353515625
50.1962328,-106.2744140625,-37.5341796875,16.9189453125
50.2175473,-106.5185546875,-36.3623046875,3.8330078125
50.2574248,-104.9560546875,-36.7041015625,-3.7353515625
50.2778204,-102.6611328125,-36.1181640625,-5.4443359375
50.3182539,-98.9013671875,-36.8017578125,-6.2255859375
50.3384375,-96.1669921875,-37.1435546875,-8.0322265625
50.3783906,-92.0654296875,-37.6318359375,-10.7177734375
50.398807,-89.9658203125,-38.9501953125,-14.3310546875
50.4360529,-88.1103515625,-38.4619140625,-18.5791015625
50.4563793,-86.2060546875,-39.4873046875,-22.6806640625
50.4986488,-86.9873046875,-40.5615234375,-28.7353515625
50.5178566,-87.3779296875,-41.8798828125,-32.8369140625
50.5558874,-86.6943359375,-41.8798828125,-37.2314453125
50.578766,-86.6455078125,-42.2216796875,-42.0166015625
50.6158711,-87.3291015625,-43.6865234375,-44.5556640625
50.6424729,-87.9150390625,-44.4189453125,-46.4111328125
50.6714282,-88.8916015625,-44.5654296875,-48.3154296875
50.7080265,-89.5263671875,-45.4443359375,-50.1220703125
50.7319318,-90.3076171875,-46.1279296875,-53.8818359375
50.776182,-92.3583984375,-47.4462890625,-58.8623046875
50.7966191,-93.4814453125,-47.7392578125,-63.3544921875
50.8220477,-94.7021484375,-45.5419921875,-63.0126953125
50.8586623,-96.0205078125,-43.3935546875,-34.3994140625
50.8790255,-97.0947265625,-42.2705078125,5.2490234375
50.9159542,-98.2177734375,-40.8056640625,23.0712890625
50.9417026,-99.6337890625,-40.3662109375,31.1279296875
50.978963,-100.4150390625,-38.7548828125,34.4970703125
51.0004126,-101.8798828125,-37.2900390625,34.2041015625
51.0375218,-103.0029296875,-37.1435546875,30.1513671875
51.0640579,-104.6630859375,-37.7294921875,18.6767578125
51.1002297,-105.5908203125,-36.8017578125,5.4443359375
51.121623,-105.2978515625,-36.0693359375,-4.5166015625
51.1588337,-102.7587890625,-35.7763671875,-7.5927734375
51.1818918,-99.3408203125,-36.3134765625,-7.9833984375
51.2210105,-95.5322265625,-37.4365234375,-9.4482421875
51.2437051,-92.9443359375,-37.4853515625,-11.7431640625
51.2834858,-89.8681640625,-38.1201171875,-15.6494140625
51.3037367,-87.3291015625,-38.4130859375,-19.2138671875
51.3388513,-85.7177734375,-39.7314453125,-23.7548828125
51.3615184,-85.5224609375,-40.5615234375,-29.5654296875
51.3983911,-85.9130859375,-40.8544921875,-35.0830078125
51.4240643,-86.4501953125,-42.3193359375,-40.0146484375
51.4606052,-86.5478515625,-42.6123046875,-44.4091796875
51.4866607,-86.3037109375,-43.8330078125,-47.7294921875
51.5246213,-87.2802734375,-44.7119140625,-50.5126953125
51.5460692,-87.8662109375,-45.7373046875,-51.4892578125
51.5835203,-89.3310546875,-46.8603515625,-54.0771484375
51.6048359,-90.6982421875,-47.5439453125,-56.6650390625
51.6533592,-92.0166015625,-48.4228515625,-61.4990234375
51.6715973,-93.2373046875,-49.1552734375,-67.1630859375
51.7083042,-94.6044921875,-48.1787109375,-69.2138671875
51.7287557,-95.5322265625,-46.1767578125,-50.1220703125
51.7652231,-97.3876953125,-45.0048828125,-6.3720703125
51.7866715,-98.4619140625,-42.9052734375,15.8447265625
51.8225777,-99.2919921875,-42.6123046875,26.2939453125
51.8454006,-100.8544921875,-41.3916015625,30.0048828125
51.8820233,-101.9775390625,-40.4150390625,30.2001953125
51.9057481,-103.9306640625,-40.2685546875,27.1728515625
51.9424912,-105.5908203125,-40.6103515625,18.2861328125
51.965308,-107.1044921875,-39.9755859375,3.8818359375
52.00368,-107.1044921875,-39.7314453125,-8.2763671875
52.0253749,-105.8837890625,-39.2431640625,-12.5732421875
52.0612862,-102.6123046875,-39.8779296875,-13.5986328125
52.0878751,-98.3154296875,-40.2685546875,-13.8916015625
52.1244506,-94.9462890625,-41.1474609375,-15.7470703125
52.1481747,-91.8701171875,-41.5380859375,-19.1650390625
52.1883793,-89.0869140625,-41.9287109375,-22.9248046875
52.2085406,-86.7431640625,-43.1494140625,-27.7587890625
52.2496035,-87.0849609375,-43.6376953125,-32.7880859375
52.2699456,-87.4755859375,-44.8095703125,-37.8662109375
52.306269,-87.4755859375,-45.4931640625,-43.0908203125
52.3287504,-87.9150390625,-46.4697265625,-47.4365234375
52.3660233,-87.5244140625,-48.0322265625,-51.3916015625
52.3916314,-88.6474609375,-48.8134765625,-54.3701171875
52.4311884,-88.7939453125,-48.7158203125,-55.6884765625
52.4502903,-89.9169921875,-49.7412109375,-57.3974609375
52.488044,-91.0888671875,-50.7666015625,-60.0830078125
52.5101001,-92.3583984375,-51.3525390625,-64.8193359375
52.5588616,-94.4091796875,-52.6220703125,-70.0439453125
52.5797267,-95.2392578125,-51.9384765625,-73.4130859375
52.6024245,-97.0947265625,-49.9853515625,-63.2568359375
52.6392969,-98.0224609375,-49.0576171875,-21.3134765625
52.661089,-99.3896484375,-47.1533203125,8.8134765625
52.69835,-100.7568359375,-47.2998046875,18.9697265625
52.7186483,-101.5380859375,-45.8837890625,22.9248046875
52.7591572,-102.9541015625,-45.4443359375,23.5107421875
52.7792211,-104.5654296875,-45.2978515625,20.5810546875
52.8129478,-105.7861328125,-45.4931640625,13.2568359375
52.8435477,-107.3974609375,-44.9072265625,-0.1220703125
52.8809454,-108.5205078125,-45.1513671875,-12.4755859375
52.9024349,-107.6416015625,-44.8095703125,-18.0419921875
52.9390426,-105.3955078125,-45.0048828125,-18.4326171875
52.9628544,-101.4892578125,-45.4931640625,-19.3603515625
53.0108245,-98.3154296875,-45.7373046875,-20.9228515625
53.0308321,-95.0927734375,-47.0556640625,-23.3642578125
53.0517408,-92.7978515625,-47.2998046875,-27.7587890625
53.0903333,-90.4052734375,-47.8857421875,-31.0791015625
53.1104426,-89.5263671875,-48.4716796875,-35.6689453125
53.148848,-89.7216796875,-49.3505859375,-40.8447265625
53.1732127,-90.7958984375,-50.3271484375,-45.6787109375
53.2127431,-90.9423828125,-51.3525390625,-49.8779296875
53.2362808,-90.8447265625,-51.8896484375,-53.8818359375
53.2640358,-90.2099609375,-52.5732421875,-56.8603515625
53.2970849,-91.5771484375,-53.1103515625,-58.7646484375
53.3257935,-92.6025390625,-54.0869140625,-60.0830078125
53.3629478,-93.0908203125,-55.0146484375,-61.6943359375
53.3866803,-94.4580078125,-55.9912109375,-66.3330078125
53.4219158,-96.4111328125,-56.3818359375,-70.2880859375
53.4440428,-97.2412109375,-56.2353515625,-74.4384765625
53.4823513,-98.3642578125,-55.4541015625,-71.2158203125
53.5065749,-100.1708984375,-54.2822265625,-35.8154296875
53.5427899,-100.7080078125,-54.0380859375,1.5380859375
53.5672813,-102.3193359375,-51.9384765625,14.4775390625
53.5933042,-103.4423828125,-50.9619140625,19.4091796875
53.6310135,-104.8095703125,-50.4248046875,19.9951171875
53.6564696,-105.7373046875,-49.5458984375,18.9697265625
53.6867166,-107.1044921875,-49.5458984375,13.7939453125
53.7199353,-108.9111328125,-49.5947265625,1.4892578125
53.7478947,-110.3271484375,-48.6669921875,-12.2314453125
53.7762485,-110.0830078125,-48.7646484375,-20.7275390625
53.8091339,-109.3017578125,-48.3740234375,-22.2412109375
53.8381464,-105.4931640625,-49.8388671875,-21.6552734375
53.8638227,-101.6845703125,-49.0087890625,-22.9736328125
53.9071834,-99.3896484375,-50.4736328125,-24.1455078125
53.9276675,-95.8251953125,-50.8642578125,-27.5146484375
53.9562071,-94.7021484375,-51.4990234375,-31.8603515625
53.9915129,-92.2119140625,-52.2314453125,-36.0107421875
54.0171395,-92.6513671875,-52.6708984375,-41.2353515625
54.0495955,-93.3349609375,-53.4521484375,-45.7763671875
54.0787641,-93.5302734375,-53.7939453125,-51.0009765625
54.1053652,-93.0908203125,-55.1611328125,-54.3212890625
54.1406748,-92.9443359375,-54.8681640625,-58.0810546875
54.1694473,-94.0185546875,-55.8935546875,-60.0830078125
54.2013521,-94.6533203125,-56.8701171875,-61.0107421875
54.2328951,-96.5087890625,-57.7001953125,-63.0126953125
54.2594727,-96.7041015625,-58.7255859375,-66.2841796875
54.2857971,-98.8525390625,-59.2138671875,-71.8505859375
54.322722,-99.5849609375,-59.1650390625,-76.2939453125
54.3491669,-101.6845703125,-57.6513671875,-74.2431640625
54.3818295,-103.0029296875,-55.7958984375,-42.7490234375
54.4120331,-103.8818359375,-55.3564453125,-3.1494140625
54.4560809,-105.0048828125,-54.7216796875,11.2548828125
54.4723812,-106.0791015625,-53.4521484375,16.9677734375
54.5019142,-107.2998046875,-53.0615234375,18.1884765625
54.5299181,-107.7880859375,-52.0849609375,16.1376953125
54.561341,-109.5458984375,-52.3779296875,11.3525390625
54.5910578,-110.9619140625,-51.7431640625,0.4638671875
54.6369825,-112.1337890625,-51.4990234375,-12.1826171875
54.6528648,-113.1103515625,-50.4248046875,-20.5322265625
54.6936143,-111.4990234375,-50.5224609375,-23.0224609375
54.7160763,-109.1552734375,-50.9130859375,-23.7060546875
54.7415987,-104.8095703125,-51.2060546875,-24.4384765625
54.78731,-102.4658203125,-52.0849609375,-25.8544921875
54.8029828,-99.4873046875,-51.8408203125,-29.0283203125
54.8333651,-97.5830078125,-52.9638671875,-32.6416015625
54.8775405,-96.0205078125,-52.3779296875,-37.3291015625
54.8934566,-94.8486328125,-53.8916015625,-42.3095703125
54.922242,-95.4833984375,-54.0869140625,-46.8994140625
54.9665642,-95.9716796875,-54.9658203125,-52.0263671875
54.9845795,-95.7275390625,-55.6005859375,-55.7861328125
55.0276209,-96.0693359375,-56.4794921875,-59.6435546875
55.0492049,-96.1181640625,-56.8701171875,-61.1083984375
55.0874848,-96.8994140625,-56.9677734375,-62.7197265625
55.1037268,-97.8759765625,-58.6279296875,-64.0380859375
55.1611333,-98.8037109375,-59.5068359375,-67.8466796875
55.1699042,-100.3662109375,-59.7509765625,-72.4853515625
55.207966,-101.2939453125,-60.1416015625,-76.6845703125
55.2272499,-102.5146484375,-57.5537109375,-77.7587890625
55.2543567,-103.4912109375,-56.4306640625,-51.2451171875
55.297456,-104.6630859375,-55.3564453125,-8.7158203125
55.3166871,-106.3232421875,-54.6240234375,9.4970703125
55.3579441,-107.0556640625,-53.6474609375,15.4541015625
55.377733,-107.5439453125,-52.4267578125,17.4072265625
55.4164036,-109.1064453125,-52.4267578125,15.7958984375
55.4322541,-110.5712890625,-51.5966796875,10.6689453125
55.4755344,-112.2314453125,-51.4990234375,0.4638671875
55.4957309,-113.2080078125,-50.5712890625,-13.0615234375
55.5381117,-114.6728515625,-50.4248046875,-22.2412109375
55.5572342,-113.5986328125,-50.1318359375,-24.9755859375
55.5984666,-111.2060546875,-49.7412109375,-25.1708984375
55.6199122,-107.9345703125,-50.6201171875,-24.8291015625
55.6597069,-104.0771484375,-50.4736328125,-28.0517578125
55.6742422,-101.8798828125,-51.2548828125,-30.2490234375
55.7210622,-99.3408203125,-51.8896484375,-33.9599609375
55.7371285,-97.0947265625,-52.3291015625,-38.4033203125
55.7784162,-95.9716796875,-52.4755859375,-43.5791015625
55.798622,-96.0205078125,-53.1103515625,-47.9736328125
55.8347863,-96.9970703125,-54.0380859375,-53.2470703125
55.8550755,-96.8994140625,-53.9892578125,-57.7392578125
55.9002735,-97.2900390625,-54.4775390625,-60.4736328125
55.9286931,-97.1923828125,-55.2587890625,-62.5244140625
55.950414,-97.0458984375,-56.0400390625,-64.0869140625
55.9875432,-98.0712890625,-56.2841796875,-65.4052734375
56.0079131,-98.9013671875,-57.5537109375,-68.0419921875
56.0447302,-99.7802734375,-57.6025390625,-73.0224609375
56.0690541,-101.6357421875,-57.5537109375,-77.9052734375
56.1085831,-103.1494140625,-56.5771484375,-79.9072265625
56.1301712,-103.2470703125,-54.9169921875,-63.7451171875
56.170066,-104.7607421875,-53.8427734375,-19.7509765625
56.1902907,-106.3232421875,-52.7685546875,5.7861328125
56.2273869,-107.2021484375,-51.0595703125,14.1845703125
56.2500247,-107.8369140625,-49.9853515625,15.8447265625
56.2880443,-108.8134765625,-48.9111328125,14.9658203125
56.3105246,-110.2783203125,-47.9345703125,10.9619140625
56.3478449,-111.4990234375,-48.1298828125,1.9775390625
56.3706132,-113.1103515625,-47.9833984375,-11.9384765625
56.4094976,-114.4775390625,-46.8115234375,-23.1689453125
56.4313173,-114.6240234375,-46.5185546875,-27.3681640625
56.467997,-112.6220703125,-46.2255859375,-27.6611328125
56.4897476,-109.1064453125,-46.7138671875,-27.3193359375
56.5274826,-106.1767578125,-46.3720703125,-28.7841796875
56.5520408,-102.9052734375,-47.6416015625,-30.8349609375
56.59131,-100.7080078125,-47.7880859375,-34.9365234375
56.6115618,-98.7548828125,-47.4951171875,-38.6962890625
56.6510458,-96.9482421875,-48.5693359375,-43.7744140625
56.6719007,-98.0712890625,-49.1552734375,-48.4619140625
56.7081845,-98.0224609375,-49.5947265625,-53.5888671875
56.7319777,-98.0224609375,-49.8388671875,-57.7880859375
56.7721634,-97.6318359375,-50.4248046875,-61.4990234375
56.7925068,-97.4365234375,-51.3037109375,-63.6474609375
56.8298598,-97.9248046875,-51.9873046875,-64.6728515625
56.8549111,-98.8525390625,-52.5732421875,-66.0400390625
56.893523,-99.3408203125,-52.5244140625,-69.3115234375
56.9147586,-100.8056640625,-53.3544921875,-73.2177734375
56.9508528,-101.7822265625,-54.0869140625,-77.0751953125
56.9724795,-102.8076171875,-51.8408203125,-79.9560546875
57.0100806,-103.9794921875,-50.1806640625,-64.1845703125
57.0366811,-105.1513671875,-48.7646484375,-19.4091796875
57.0761762,-106.6162109375,-46.8603515625,5.2490234375
57.0964763,-106.8603515625,-45.9326171875,13.5009765625
57.1366768,-108.4716796875,-44.1259765625,16.2353515625
57.168288,-108.6669921875,-43.2470703125,15.8447265625
57.1832355,-110.4248046875,-42.6611328125,11.7431640625
57.2227475,-111.6455078125,-42.4658203125,3.0517578125
57.2441408,-112.8662109375,-41.8798828125,-10.7177734375
57.2799841,-114.0869140625,-40.3173828125,-21.2646484375
57.3079697,-114.1357421875,-40.6591796875,-26.0986328125
57.343947,-113.3056640625,-41.0986328125,-26.1962890625
57.3696108,-109.5947265625,-40.2685546875,-26.8310546875
57.405671,-106.6162109375,-40.8056640625,-27.9052734375
57.4261158,-103.4912109375,-40.7080078125,-30.2001953125
57.4644216,-100.6591796875,-41.2451171875,-33.7158203125
57.4861232,-97.9248046875,-42.8564453125,-37.9150390625
57.5206637,-97.2412109375,-42.2216796875,-42.9443359375
57.5477991,-96.0693359375,-43.2958984375,-48.3154296875
57.588611,-97.1923828125,-44.2724609375,-53.2470703125
57.6080424,-96.7041015625,-44.3212890625,-57.4462890625
57.6451014,-96.3134765625,-45.0537109375,-61.3525390625
57.6666589,-96.5087890625,-45.8349609375,-63.9892578125
57.7044066,-96.7041015625,-46.8115234375,-64.6240234375
57.7271963,-96.9970703125,-47.5927734375,-66.6748046875
57.764008,-98.0712890625,-48.9111328125,-68.8232421875
57.7905325,-99.0966796875,-48.3251953125,-73.1201171875
57.8300104,-99.7802734375,-49.4970703125,-77.4658203125
57.8474108,-101.4892578125,-47.9833984375,-81.7138671875
57.8838867,-102.3681640625,-45.6396484375,-72.3388671875
57.9067113,-103.5888671875,-43.7841796875,-29.0771484375
57.9437646,-104.6630859375,-42.5634765625,2.4169921875
57.9694718,-105.8349609375,-40.9033203125,13.3056640625
58.0070026,-107.2998046875,-40.0244140625,18.0419921875
58.0322834,-107.5439453125,-38.1201171875,17.8955078125
58.0685141,-108.0810546875,-38.6083984375,15.6005859375
58.0887897,-110.1318359375,-37.4853515625,7.7392578125
58.1245999,-111.2548828125,-37.3388671875,-5.1513671875
58.1504353,-112.6220703125,-36.7529296875,-17.4560546875
58.1857811,-113.4033203125,-36.2646484375,-23.0712890625
58.21292,-112.4267578125,-36.5576171875,-24.4873046875
58.2503134,-109.5458984375,-37.2900390625,-24.4873046875
58.2744946,-106.5185546875,-36.5576171875,-25.4638671875
58.3126113,-103.1494140625,-36.9970703125,-27.6123046875
58.3312746,-100.9033203125,-37.7783203125,-31.4697265625
58.3671315,-97.8271484375,-39.3896484375,-35.4248046875
58.3934641,-95.6298828125,-39.4873046875,-40.1611328125
58.4309387,-94.6044921875,-39.7802734375,-45.3369140625
58.4546818,-94.6044921875,-40.8544921875,-50.3662109375
58.4930827,-95.6787109375,-42.1728515625,-55.1513671875
58.510743,-95.1416015625,-42.9052734375,-59.5947265625
58.5479542,-95.5810546875,-43.4423828125,-62.5244140625
58.573942,-95.1904296875,-44.5654296875,-64.2333984375
58.6129718,-95.0927734375,-45.4931640625,-64.9658203125
58.6332141,-95.8251953125,-46.0302734375,-67.2119140625
58.6715256,-97.6318359375,-47.2021484375,-70.1904296875
58.6953178,-98.6083984375,-47.8369140625,-74.9267578125
58.7344781,-99.9267578125,-47.2998046875,-79.3701171875
58.7548702,-100.0732421875,-45.2978515625,-79.5166015625
58.7903664,-102.0263671875,-43.4423828125,-50.2685546875
58.814083,-103.1005859375,-41.9287109375,-7.9345703125
58.8529769,-104.4189453125,-41.1474609375,10.1806640625
58.87477,-105.4443359375,-39.4873046875,16.4794921875
58.9044499,-106.7138671875,-38.6572265625,18.6279296875
58.9425287,-107.3974609375,-38.3642578125,16.4306640625
58.9650842,-109.0087890625,-37.9248046875,11.2060546875
59.0029439,-109.8388671875,-37.7294921875,-1.2451171875
59.0270037,-111.8408203125,-37.4365234375,-15.0146484375
59.0567975,-113.0126953125,-37.8271484375,-25.5126953125
59.0920851,-113.5009765625,-37.3876953125,-27.7099609375
59.1179178,-112.2314453125,-37.5830078125,-26.9287109375
59.1468261,-108.5693359375,-37.9736328125,-26.8798828125
59.1788934,-104.9560546875,-38.9013671875,-29.1748046875
59.2085794,-101.8798828125,-39.6337890625,-33.0322265625
59.2337204,-99.4873046875,-40.5615234375,-35.8154296875
59.2692565,-97.0947265625,-41.7822265625,-40.4052734375
59.2966395,-95.2392578125,-41.8310546875,-45.4833984375
59.3258724,-95.1904296875,-43.1494140625,-50.1220703125
59.3589009,-95.8740234375,-43.4423828125,-54.8583984375
59.3894533,-96.3623046875,-44.3701171875,-59.8388671875
59.4163337,-96.1181640625,-44.7119140625,-62.6220703125
59.4501137,-95.8251953125,-45.8837890625,-64.6240234375
59.4774099,-96.4599609375,-47.4462890625,-66.5283203125
59.5067182,-96.5576171875,-48.3740234375,-67.1630859375
59.5398714,-98.2666015625,-48.9111328125,-70.2880859375
59.5680327,-99.1943359375,-49.9853515625,-74.6337890625
59.6155818,-100.4638671875,-50.6201171875,-79.2724609375
59.629554,-101.7333984375,-48.8134765625,-82.3974609375
59.6561128,-102.6123046875,-47.6904296875,-66.5771484375
59.6871712,-103.9794921875,-46.1279296875,-20.6298828125
59.7195574,-104.9560546875,-45.5419921875,4.8095703125
59.7483618,-106.2255859375,-43.7841796875,14.0869140625
59.781895,-106.6162109375,-43.0517578125,16.6748046875
59.8094238,-108.1787109375,-41.6845703125,15.8447265625
59.8373013,-108.8134765625,-42.0751953125,11.9384765625
59.8849913,-110.4248046875,-41.8798828125,2.1240234375
59.8989352,-111.9873046875,-41.6845703125,-12.9638671875
59.9462189,-112.7685546875,-41.4892578125,-25.1220703125
59.9665352,-113.6962890625,-41.4404296875,-29.9560546875
60.0028605,-112.8173828125,-41.7822265625,-30.0048828125
