Timestamp,PPG_Forehead,PPG_Earlobe,PPG_Finger
0.00278890000000009,0.185546875,0.185546875,0.185546875
0.00377640000000001,0.185546875,0.185546875,0.185546875
0.00476359999999998,0.185546875,0.185546875,0.185546875
0.00559490000000018,0.185546875,0.185546875,0.185546875
0.00639250000000002,0.185546875,0.185546875,0.185546875
0.00719659999999989,0.185546875,0.185546875,0.185546875
0.00763550000000013,92.4169921875,86.2646484375,82.8466796875
0.00813869999999994,-123.8232421875,52.1826171875,-3.2666015625
0.00853020000000004,-124.4091796875,51.5966796875,-8.4423828125
0.00890749999999985,-125.3857421875,51.4013671875,-14.4482421875
0.00930639999999983,-126.7529296875,49.5947265625,-20.6494140625
0.00970339999999981,-126.8994140625,48.7158203125,-26.3623046875
0.0100758000000001,-127.6806640625,47.9833984375,-31.9287109375
0.0104536999999998,-128.3642578125,47.0556640625,-37.3486328125
0.0108183999999998,-128.7548828125,45.0048828125,-41.5478515625
0.0112665999999999,-129.0478515625,44.1259765625,-46.1376953125
0.0116185,-129.3408203125,42.9052734375,-49.9951171875
0.0119665000000002,-129.9267578125,41.6845703125,-53.9501953125
0.0123180000000001,-131.1962890625,39.5849609375,-58.9306640625
0.0126605,-131.8310546875,39.1943359375,-63.3740234375
0.0130002999999999,-131.7822265625,38.2177734375,-67.6220703125
0.0133478,-131.1962890625,38.3642578125,-61.6162109375
0.0136910000000001,-127.2412109375,40.6103515625,-38.3251953125
0.0140340999999999,-123.6767578125,42.4658203125,-8.6865234375
0.0144818,-122.3095703125,44.3701171875,9.3798828125
0.0148302999999999,-121.6259765625,45.3466796875,16.0205078125
0.0152551000000001,-120.1611328125,46.8115234375,16.0693359375
0.0156893999999999,-120.0146484375,47.7392578125,15.4345703125
0.0163009999999999,-120.0634765625,49.0087890625,12.4560546875
0.0166038999999998,-121.2841796875,49.1064453125,7.5244140625
0.0169647999999998,-121.4794921875,49.2529296875,3.4228515625
0.0173629000000002,-121.6259765625,49.7412109375,1.9580078125
0.0176642999999999,-121.8701171875,49.0576171875,0.9326171875
0.0179659999999999,-122.9931640625,49.3017578125,-1.5087890625
0.0182739000000001,-123.0908203125,48.7646484375,-3.9013671875
0.0185664999999999,-123.6767578125,48.2763671875,-8.5400390625
0.0188579,-124.9462890625,47.2509765625,-15.1318359375
0.0191588999999999,-125.6787109375,46.4208984375,-20.8447265625
0.0194573999999998,-126.6064453125,45.1513671875,-28.0224609375
0.0197478000000002,-127.0458984375,43.9794921875,-33.9794921875
0.0200456,-128.4130859375,43.4912109375,-39.2529296875
0.0204860999999998,-128.9013671875,41.8798828125,-44.1357421875
0.0207837999999998,-129.1455078125,41.2939453125,-48.6279296875
0.0210745999999999,-130.0244140625,39.7314453125,-52.6318359375
0.0213703000000001,-129.7802734375,38.4619140625,-56.8310546875
0.0216644000000001,-131.0009765625,37.4365234375,-60.2978515625
0.0219548999999999,-131.5869140625,35.7275390625,-64.7412109375
0.0222525999999998,-132.0263671875,34.2138671875,-70.2099609375
0.0225472,-133.1005859375,32.5537109375,-74.8486328125
0.0228470999999999,-132.9052734375,32.7490234375,-75.7763671875
0.0231400000000002,-130.7568359375,34.7021484375,-59.4189453125
0.0235403000000001,-126.8994140625,36.2158203125,-31.1474609375
0.0238369000000001,-124.0673828125,37.0947265625,-5.4150390625
0.0241305000000001,-123.0908203125,38.7060546875,4.6923828125
0.0244301,-122.3583984375,40.1708984375,7.7197265625
0.0247275,-121.6748046875,41.9775390625,5.7666015625
0.0250195,-121.5771484375,42.3681640625,3.8134765625
0.0253103000000001,-122.0166015625,42.8564453125,-0.5810546875
0.0256102999999999,-122.3583984375,43.6865234375,-4.5361328125
0.0259062999999999,-122.9443359375,43.2470703125,-7.4169921875
0.0261995000000002,-122.7978515625,43.2470703125,-8.8818359375
0.0265678999999999,-123.2861328125,43.0029296875,-9.5654296875
0.0268913999999998,-123.6279296875,43.2470703125,-10.8349609375
0.0271827999999998,-124.3603515625,42.8076171875,-14.6435546875
0.0274782,-125.5810546875,42.1240234375,-19.7705078125
0.0277739000000001,-126.1669921875,42.3193359375,-25.3369140625
0.0280694000000001,-126.7529296875,40.5126953125,-31.7822265625
0.0283603000000001,-128.2177734375,40.3662109375,-37.3974609375
0.0286629999999999,-128.0712890625,38.5107421875,-42.7197265625
0.0289541,-128.9501953125,37.5830078125,-47.8955078125
0.0292447,-129.2919921875,36.8994140625,-51.5087890625
0.0295423000000001,-129.8291015625,35.9716796875,-56.1962890625
0.0299464,-130.4150390625,34.6533203125,-58.6865234375
0.0302419999999999,-131.0986328125,32.8955078125,-63.1787109375
0.0305409000000001,-131.7333984375,32.1630859375,-67.1826171875
0.0308443,-132.4658203125,30.3564453125,-71.6748046875
0.0311373000000001,-133.0517578125,29.7705078125,-75.6298828125
0.0314323999999999,-133.0029296875,30.1611328125,-74.2138671875
0.0317318000000002,-131.2451171875,32.5537109375,-54.4384765625
0.0320594000000001,-126.8994140625,33.4326171875,-28.4619140625
0.0324665,-124.9951171875,34.5068359375,-8.8330078125
0.0328685000000002,-124.1162109375,35.6787109375,-1.9970703125
0.0332384999999999,-123.6279296875,36.3134765625,-2.0947265625
0.0335309000000001,-123.2861328125,36.9970703125,-4.7802734375
0.0338425999999998,-124.0185546875,36.7529296875,-9.5166015625
0.0341494999999998,-124.7998046875,37.5830078125,-15.0341796875
0.0344633999999999,-124.8974609375,37.7294921875,-18.6962890625
0.0347754,-124.6044921875,37.0947265625,-18.5009765625
0.0350774999999999,-124.8486328125,36.2646484375,-18.5009765625
0.0353691,-125.2880859375,36.4599609375,-19.1845703125
0.0356755,-125.4345703125,36.6064453125,-22.1630859375
0.0359712000000001,-126.0205078125,36.5087890625,-26.5576171875
0.0363970999999998,-127.0458984375,36.0205078125,-31.4892578125
0.0366939999999998,-127.9248046875,34.7509765625,-37.1533203125
0.0369885999999999,-128.1689453125,33.4326171875,-43.0126953125
0.0373084000000001,-128.9013671875,33.0908203125,-48.0419921875
0.0376227999999998,-129.1943359375,31.3330078125,-53.0712890625
0.0379231999999998,-129.8779296875,30.3564453125,-56.6357421875
0.0382397999999999,-130.2197265625,29.3798828125,-60.2978515625
0.0385414000000002,-130.8056640625,28.5498046875,-63.7158203125
0.0388324,-131.0986328125,27.4755859375,-67.5732421875
0.0391268999999999,-132.2216796875,25.7177734375,-71.8701171875
0.0395083999999999,-132.3681640625,24.4482421875,-76.2158203125
0.0398018000000002,-132.9541015625,25.0341796875,-75.8251953125
0.0400942,-131.4404296875,26.6943359375,-60.2001953125
0.0403913999999999,-128.0224609375,29.0380859375,-34.5166015625
0.0406849,-124.8486328125,29.4775390625,-10.9326171875
0.0409836000000001,-123.6767578125,30.6005859375,-1.8505859375
0.0412737999999999,-123.1396484375,30.6005859375,-0.8740234375
0.0415779000000001,-123.0908203125,31.6748046875,-2.1435546875
0.0418707,-122.4560546875,32.4072265625,-7.3193359375
0.0421623000000002,-124.0185546875,32.9931640625,-13.6181640625
0.0425309999999999,-124.2138671875,32.7001953125,-16.8896484375
0.0428399000000002,-124.0673828125,33.0419921875,-18.5986328125
0.0431339999999998,-124.5068359375,33.3349609375,-17.9638671875
0.0434302999999998,-123.9208984375,32.4560546875,-19.1845703125
0.0437294000000001,-124.3115234375,32.3583984375,-20.7470703125
0.0440277999999998,-124.8974609375,31.8701171875,-24.9951171875
0.0443193000000002,-125.8740234375,31.1865234375,-29.9755859375
0.0446200999999999,-126.9970703125,31.5283203125,-35.8837890625
0.0449174999999999,-127.4365234375,29.3798828125,-41.1572265625
0.0452113000000001,-128.0712890625,29.0869140625,-46.9677734375
0.0455236000000001,-128.4619140625,27.5244140625,-51.9970703125
0.0458911,-129.1455078125,26.7919921875,-56.2451171875
0.0461974000000001,-129.6337890625,26.0595703125,-60.0048828125
0.0464992,-130.3662109375,24.5947265625,-62.8369140625
0.0468003000000001,-130.6591796875,23.1787109375,-66.4990234375
0.0470969999999999,-131.3427734375,21.6162109375,-70.6005859375
0.0474039999999998,-131.7333984375,20.3955078125,-75.0927734375
0.0476966000000001,-132.5634765625,19.7607421875,-78.4619140625
0.0479847000000002,-132.3681640625,20.8349609375,-73.1396484375
0.0483633000000001,-130.0732421875,23.5693359375,-49.7509765625
0.0487031999999998,-126.6064453125,24.8876953125,-20.6494140625
0.0490083000000001,-124.1650390625,26.2548828125,-0.0927734375
0.0493035000000002,-122.7978515625,27.3291015625,6.7431640625
0.0495931999999999,-121.5771484375,28.5986328125,7.5732421875
0.0498820000000002,-121.5771484375,30.0146484375,5.3759765625
0.0501708000000001,-121.1865234375,30.1123046875,1.6650390625
0.0504671000000001,-122.1142578125,30.7470703125,-2.3876953125
0.0507607999999999,-122.3095703125,31.1865234375,-5.4638671875
0.0510565999999999,-122.5048828125,30.7958984375,-7.1728515625
0.0514168000000002,-122.7978515625,31.8212890625,-7.3193359375
0.0517194000000001,-122.5537109375,30.4052734375,-8.1494140625
0.0520082999999998,-122.9443359375,30.8935546875,-11.2255859375
0.0522955000000001,-124.0185546875,30.5517578125,-15.4248046875
0.0525913999999998,-124.6533203125,30.0146484375,-21.3330078125
0.0528846000000001,-125.3369140625,29.1357421875,-26.9482421875
0.0531774,-126.0693359375,28.3544921875,-33.0029296875
0.0534816999999999,-126.6064453125,27.0849609375,-38.3740234375
0.0537728,-127.3388671875,26.2060546875,-43.7939453125
0.0540633000000001,-128.1201171875,25.6201171875,-48.4326171875
0.0543594000000001,-128.8037109375,24.5947265625,-52.4365234375
0.0546983999999999,-128.8525390625,23.1298828125,-55.8056640625
0.0549900000000001,-129.4873046875,21.9580078125,-59.6630859375
0.0552858000000001,-130.0732421875,20.7861328125,-62.9833984375
0.0555829999999999,-130.4638671875,19.2236328125,-68.1103515625
0.0558725,-131.0498046875,18.1982421875,-72.3583984375
0.0561634999999998,-131.4404296875,18.1982421875,-73.5791015625
0.0564657,-131.5380859375,20.5419921875,-57.2705078125
0.0567742999999998,-127.3876953125,22.5927734375,-27.4853515625
0.0570637000000001,-124.5556640625,23.1787109375,-1.0693359375
0.0573522,-122.3095703125,24.7412109375,10.6982421875
0.0576911999999998,-121.3818359375,25.7666015625,13.0419921875
0.0579858999999998,-120.7470703125,26.7431640625,11.8212890625
0.0582788000000001,-120.4541015625,27.6708984375,9.5263671875
0.0585779,-120.7470703125,28.1103515625,5.3759765625
0.0588722000000002,-121.0888671875,28.1591796875,1.1767578125
0.0591672000000001,-121.2841796875,28.2080078125,-1.4599609375
0.0594641999999999,-121.9677734375,28.3544921875,-1.9482421875
0.0597528000000001,-121.8212890625,28.5986328125,-2.7783203125
0.0600407999999999,-122.3583984375,28.0615234375,-4.7802734375
0.0603324000000001,-123.0419921875,28.3056640625,-8.8330078125
0.0606716999999999,-123.3837890625,27.7197265625,-13.8623046875
0.0609625,-124.3603515625,27.7685546875,-19.8681640625
0.0612541000000002,-125.8740234375,26.9873046875,-25.8740234375
0.0615465999999998,-125.8740234375,24.8388671875,-31.6357421875
0.0618341999999998,-126.9482421875,24.3505859375,-37.3486328125
0.062125,-127.2900390625,23.6669921875,-42.3779296875
0.0624142999999999,-127.6806640625,23.4716796875,-46.3818359375
0.0627124000000001,-128.2177734375,22.0556640625,-50.1904296875
0.0630025000000001,-129.2431640625,20.9326171875,-53.7548828125
0.0633081999999998,-130.0244140625,19.6142578125,-57.5634765625
0.0636679,-130.0732421875,18.4912109375,-62.1044921875
0.0701326,-130.8056640625,17.4658203125,-66.1083984375
0.1086225,-131.8310546875,16.9287109375,-69.0869140625
0.1310746,-131.9775390625,18.0029296875,-58.8330078125
0.1711272,-130.2685546875,20.2978515625,-33.4912109375
0.1918665,-126.5576171875,21.6162109375,-6.7333984375
0.2279093,-124.0185546875,22.5439453125,7.2314453125
0.25489,-123.0419921875,23.8623046875,10.8935546875
0.29328,-122.6025390625,24.6435546875,9.2333984375
0.3146254,-122.4072265625,25.1318359375,5.6689453125
0.3517541,-122.7001953125,25.5224609375,-0.3369140625
0.3719399,-123.4814453125,26.0107421875,-5.0732421875
0.4088224,-123.7255859375,25.8154296875,-7.1728515625
0.4354975,-123.3837890625,26.2060546875,-7.1728515625
0.4726979,-123.3349609375,25.6689453125,-7.3193359375
0.4919162,-123.8720703125,25.9130859375,-8.4423828125
0.5313982,-124.6533203125,24.9853515625,-12.2509765625
0.5520633,-125.5322265625,24.3505859375,-16.8896484375
0.589687,-125.7275390625,23.9111328125,-21.6259765625
0.6132127,-126.2158203125,22.8857421875,-27.1435546875
0.6625264,-127.2412109375,22.0556640625,-32.2216796875
0.6929536,-128.1689453125,21.2255859375,-37.4951171875
0.7039837,-128.3642578125,19.8583984375,-42.3291015625
0.7399934,-129.0966796875,19.4189453125,-45.6982421875
0.767129,-129.2919921875,18.1982421875,-49.1650390625
0.8032306,-129.3896484375,17.2216796875,-52.7294921875
0.8233236,-129.9267578125,15.7568359375,-56.4892578125
0.8666315,-131.0009765625,15.6103515625,-60.0048828125
0.8867173,-131.0498046875,15.0732421875,-62.1044921875
0.9253625,-131.3916015625,15.7568359375,-48.9208984375
0.9464808,-129.4873046875,17.7099609375,-24.3603515625
0.9860186,-126.1181640625,18.6865234375,-0.7763671875
1.0044523,-123.5302734375,19.3701171875,10.2587890625
1.0438739,-123.0908203125,20.5419921875,10.9912109375
1.0639051,-122.1630859375,20.8837890625,8.5009765625
1.1052869,-122.4072265625,21.5673828125,3.7158203125
1.1256761,-122.6025390625,21.2255859375,-2.4853515625
1.1638886,-123.2861328125,21.2255859375,-6.7822265625
1.1868237,-123.4326171875,21.6650390625,-8.6376953125
1.2233754,-123.1396484375,21.5673828125,-8.1005859375
1.2473852,-123.4326171875,21.5673828125,-8.4423828125
1.2864283,-123.0419921875,20.7861328125,-10.4931640625
1.3090047,-123.9208984375,20.6884765625,-14.5947265625
1.3478027,-124.5068359375,20.2490234375,-19.8193359375
1.3686881,-125.3857421875,19.7607421875,-24.8486328125
1.4071944,-126.0205078125,19.3212890625,-30.4638671875
1.4297138,-126.9482421875,17.4169921875,-35.2001953125
1.4588931,-127.1435546875,16.6357421875,-40.3759765625
1.5061228,-127.4853515625,15.9033203125,-44.1845703125
1.5282077,-128.4619140625,14.7314453125,-47.5537109375
1.5499814,-128.6083984375,13.6083984375,-51.2646484375
1.5823232,-129.2919921875,12.9736328125,-55.6103515625
1.6094658,-129.4873046875,11.0693359375,-59.1259765625
1.6463574,-130.1708984375,12.0947265625,-59.6630859375
1.6728748,-130.9521484375,13.8037109375,-45.5029296875
1.7020316,-128.6572265625,15.3662109375,-18.2080078125
1.7300913,-124.9951171875,16.8310546875,6.8896484375
1.7668527,-122.0654296875,18.1982421875,17.4365234375
1.7914204,-120.8935546875,18.9306640625,19.6826171875
1.8183016,-120.4541015625,20.4931640625,18.2177734375
1.8527003,-120.3076171875,21.1767578125,14.3603515625
1.8788104,-119.7705078125,21.1767578125,9.9658203125
1.9155908,-121.3330078125,21.5185546875,5.7666015625
1.9418279,-121.0400390625,21.7138671875,4.0087890625
1.9716762,-120.9912109375,21.6650390625,4.0087890625
2.0034393,-121.3330078125,21.9580078125,3.2275390625
2.0314274,-121.0400390625,22.0556640625,1.2744140625
2.0680854,-121.0888671875,21.7138671875,-2.8271484375
2.0944208,-122.4560546875,21.0791015625,-7.6123046875
2.1416367,-123.0908203125,20.7861328125,-13.0810546875
2.1512476,-123.7744140625,21.0302734375,-19.2822265625
2.1842561,-124.4091796875,19.3701171875,-24.7509765625
2.2296953,-124.9462890625,18.2470703125,-29.5361328125
2.2497415,-125.2392578125,17.7587890625,-34.2724609375
2.2745946,-126.0205078125,16.4892578125,-38.0322265625
2.3201454,-126.5576171875,15.2685546875,-41.4501953125
2.3460739,-127.1923828125,14.2431640625,-45.9423828125
2.3641345,-127.6806640625,13.4619140625,-49.8974609375
2.3936502,-128.5595703125,12.9248046875,-53.7060546875
2.4413894,-129.2431640625,13.2177734375,-48.8232421875
2.461595,-128.6572265625,15.6103515625,-26.3623046875
2.4815441,-125.2392578125,17.7587890625,4.3017578125
2.5338116,-122.2119140625,19.3212890625,22.6123046875
2.5437789,-119.4775390625,20.1513671875,29.4482421875
2.5940536,-118.6962890625,22.0068359375,29.8388671875
2.6144255,-117.7197265625,22.8857421875,29.1064453125
2.6515145,-117.5732421875,23.8134765625,26.6650390625
2.664815,-117.8173828125,24.2529296875,21.3916015625
2.7200387,-118.3056640625,24.8876953125,18.7060546875
2.7401074,-118.3544921875,24.6435546875,16.6064453125
2.7527188,-118.5498046875,25.0341796875,15.7763671875
2.8012206,-118.7939453125,24.3505859375,14.8486328125
2.8219413,-118.5498046875,24.3017578125,11.6259765625
2.8616994,-119.1357421875,23.3251953125,6.0595703125
2.8934719,-120.5029296875,22.8857421875,0.3955078125
2.9063442,-121.1376953125,22.3974609375,-6.0986328125
2.9509146,-122.0654296875,21.4697265625,-12.2509765625
2.9710564,-122.3583984375,20.7861328125,-17.7197265625
3.0061231,-123.5791015625,19.5166015625,-22.7001953125
3.027537,-124.0185546875,18.5400390625,-28.1201171875
3.0717182,-124.8974609375,17.9541015625,-31.4404296875
3.0920556,-125.2880859375,16.7333984375,-35.6396484375
3.1296964,-125.9228515625,15.4150390625,-39.6923828125
3.1498695,-126.3623046875,14.0478515625,-44.3310546875
3.1919159,-126.6552734375,12.7294921875,-48.2861328125
3.2114277,-127.6806640625,13.4130859375,-48.7255859375
3.2494359,-127.4853515625,15.5615234375,-32.4658203125
3.2701688,-126.3134765625,17.9052734375,-1.7041015625
3.3114714,-122.1630859375,19.4189453125,22.1728515625
3.3330998,-119.2333984375,19.9560546875,31.2548828125
3.3699989,-116.9873046875,21.6162109375,33.1591796875
3.3902466,-116.7919921875,23.3251953125,32.4755859375
3.4341916,-115.9130859375,23.7158203125,30.7177734375
3.4532016,-115.2294921875,23.4716796875,26.7138671875
3.4891871,-116.0107421875,23.9599609375,22.1240234375
3.5103279,-116.8896484375,24.2529296875,19.4873046875
3.5511156,-117.3779296875,24.4482421875,18.6083984375
3.5725304,-117.4267578125,24.6923828125,17.3388671875
3.6101119,-117.2314453125,24.0087890625,14.9951171875
3.6324727,-118.5009765625,24.4482421875,10.3564453125
3.6730155,-118.6474609375,23.1787109375,5.3271484375
3.6939238,-120.0634765625,22.7392578125,-0.8740234375
3.7306967,-120.2587890625,21.6650390625,-6.9775390625
3.7519023,-121.3330078125,21.3720703125,-12.2998046875
3.7882362,-122.3583984375,19.8583984375,-17.9150390625
3.8083216,-122.9931640625,19.5166015625,-23.2373046875
3.849303,-123.3349609375,19.1259765625,-27.2412109375
3.8706642,-124.5556640625,17.3681640625,-30.8544921875
3.9126966,-125.2880859375,16.2451171875,-34.6142578125
3.9340855,-125.8740234375,14.6337890625,-38.6181640625
3.973695,-126.4599609375,13.2666015625,-43.2568359375
3.9938232,-126.6064453125,11.9970703125,-48.4814453125
4.030754,-127.7294921875,11.9970703125,-51.9970703125
4.0510563,-128.4619140625,13.4130859375,-41.3525390625
4.0905382,-128.0712890625,14.4384765625,-15.9130859375
4.1133301,-124.7998046875,16.5869140625,11.4306640625
4.1604281,-121.7724609375,17.0263671875,24.8095703125
4.1806702,-119.6728515625,18.2470703125,26.9580078125
4.2168855,-118.6962890625,18.7353515625,26.1767578125
4.2370451,-117.6220703125,19.8095703125,23.4423828125
4.2762359,-118.2568359375,19.7607421875,18.1689453125
4.2962653,-118.3544921875,20.2978515625,13.5791015625
4.3317811,-119.0869140625,19.8095703125,11.2841796875
4.3553658,-119.0869140625,20.0048828125,10.7958984375
4.3926013,-119.6728515625,19.8583984375,10.7470703125
4.4172096,-119.9169921875,19.5166015625,9.0380859375
4.4527882,-119.9658203125,19.0771484375,5.7666015625
4.4741925,-120.6005859375,18.1982421875,0.9326171875
4.5156467,-120.8935546875,17.7587890625,-4.4384765625
4.5356334,-122.3583984375,17.0751953125,-9.8583984375
4.5728339,-122.7978515625,16.0986328125,-15.9130859375
4.5984938,-124.1162109375,14.3896484375,-21.5283203125
4.6366037,-124.5068359375,13.6572265625,-25.1904296875
4.6614441,-125.3369140625,13.6572265625,-29.1943359375
4.6987907,-125.9228515625,11.4599609375,-32.7587890625
4.7234077,-126.6552734375,10.0439453125,-37.2021484375
4.7607423,-126.8017578125,8.7744140625,-41.2548828125
4.7805451,-127.7783203125,8.0419921875,-45.3564453125
4.817662,-127.7783203125,7.1630859375,-48.2861328125
4.8386873,-129.0966796875,8.4814453125,-40.9619140625
4.8753278,-128.4619140625,9.7998046875,-17.5732421875
4.895094,-126.8505859375,11.6552734375,9.4287109375
4.9365672,-123.5791015625,12.2900390625,23.3447265625
4.9556812,-120.6982421875,12.6318359375,27.0068359375
4.9962665,-120.0634765625,14.0966796875,25.0048828125
5.0184393,-119.8681640625,14.2919921875,21.6357421875
5.0560418,-119.3310546875,13.7060546875,16.0693359375
5.0775663,-119.7705078125,14.7802734375,11.0400390625
5.1150753,-120.8935546875,14.4873046875,8.4033203125
5.1362912,-121.2353515625,14.4873046875,8.2080078125
5.1783365,-121.0400390625,13.5107421875,7.8662109375
5.1997958,-121.1376953125,13.3642578125,6.1572265625
5.2357123,-120.6982421875,13.0224609375,2.3486328125
5.2597645,-121.9189453125,12.3876953125,-2.6806640625
5.3009392,-122.5537109375,11.5576171875,-8.2470703125
5.3215521,-122.7001953125,10.9716796875,-14.6923828125
5.3593179,-124.1650390625,10.1416015625,-19.8193359375
5.3802516,-124.7021484375,9.4091796875,-25.2880859375
5.4188163,-124.7998046875,8.0419921875,-29.6826171875
5.4412295,-125.7763671875,7.2607421875,-34.0283203125
5.4776151,-126.1669921875,5.6005859375,-38.1787109375
5.498729,-127.0458984375,5.2587890625,-42.1337890625
5.5368025,-127.0947265625,3.6962890625,-46.5283203125
5.5589678,-128.6083984375,3.4033203125,-50.6298828125
5.5957643,-128.3642578125,3.5986328125,-45.0634765625
5.6199141,-128.9501953125,5.2587890625,-24.9462890625
5.6589026,-127.9248046875,7.1630859375,5.3759765625
5.6816598,-124.5556640625,7.8955078125,23.0029296875
5.7180252,-121.7236328125,9.7021484375,28.1298828125
5.743916,-120.1123046875,9.7021484375,27.5927734375
5.7812375,-119.8193359375,12.1435546875,25.8349609375
5.801553,-119.0869140625,10.9228515625,22.6123046875
5.8387778,-119.4775390625,12.2412109375,16.3623046875
5.8606545,-119.7705078125,11.3134765625,13.4814453125
5.9134102,-120.9423828125,11.3623046875,12.7490234375
5.9447593,-120.2099609375,11.5087890625,11.3330078125
5.9509424,-120.4541015625,11.1669921875,10.1611328125
5.9916473,-120.4052734375,11.2646484375,6.8408203125
6.0127588,-120.7958984375,10.8740234375,2.9833984375
6.0520473,-121.9189453125,10.3369140625,-3.8525390625
6.0737304,-122.8955078125,8.6279296875,-10.1513671875
6.1115704,-123.3349609375,9.1650390625,-15.5224609375
6.1331146,-123.8720703125,8.0908203125,-22.0654296875
6.1754369,-124.8974609375,6.0888671875,-27.1923828125
6.1924812,-125.4345703125,5.4541015625,-32.3193359375
6.2325191,-126.0205078125,5.3076171875,-35.8837890625
6.2546308,-126.5087890625,3.0615234375,-39.7412109375
6.2918469,-127.4853515625,1.6455078125,-44.3798828125
6.3135063,-128.0224609375,0.8642578125,-49.2626953125
6.3539545,-128.6083984375,0.3271484375,-53.4619140625
6.3737165,-128.5595703125,1.6943359375,-45.8935546875
6.4141191,-129.6826171875,3.2568359375,-23.6767578125
6.4449159,-128.5107421875,5.0146484375,6.9873046875
6.4660811,-125.0439453125,5.9423828125,23.8818359375
6.5015241,-121.6259765625,7.5048828125,29.0087890625
6.5248986,-120.0634765625,8.6767578125,28.5693359375
6.5654336,-119.2333984375,9.2626953125,27.3974609375
6.5833295,-118.3544921875,10.3857421875,23.4912109375
6.6228936,-118.7451171875,10.4345703125,18.5595703125
6.6442787,-118.2568359375,11.1181640625,14.6044921875
6.6797373,-119.5751953125,10.8251953125,13.0908203125
6.7053765,-119.8193359375,11.3623046875,12.3583984375
6.7414691,-119.7705078125,10.7763671875,10.9912109375
6.7680223,-120.0634765625,10.1416015625,6.4501953125
6.8041515,-120.2099609375,10.2392578125,1.6162109375
6.8255154,-120.5517578125,9.1162109375,-4.0966796875
6.8643512,-121.5283203125,9.1162109375,-10.5419921875
6.8865899,-122.0166015625,8.0908203125,-16.9873046875
6.9238897,-123.0908203125,6.6748046875,-22.8466796875
6.9481806,-123.7255859375,6.3330078125,-28.0224609375
6.9853583,-124.0185546875,5.1611328125,-33.0029296875
7.00919,-125.3369140625,4.0380859375,-37.5439453125
7.0391325,-125.4833984375,3.3544921875,-41.4013671875
7.0676682,-125.8740234375,1.2548828125,-45.1611328125
7.1049775,-126.8994140625,0.4248046875,-49.6044921875
7.1269683,-127.2900390625,-0.8447265625,-54.8779296875
7.1612241,-127.6806640625,-0.8935546875,-59.0771484375
7.1890616,-128.2177734375,-0.5029296875,-56.6845703125
7.2186503,-129.1455078125,1.4013671875,-35.0048828125
7.2550538,-128.7060546875,3.1103515625,-4.2431640625
7.2809425,-126.2646484375,4.3310546875,17.3388671875
7.3093446,-121.8701171875,6.7724609375,23.9306640625
7.3405436,-119.8681640625,6.9189453125,23.5888671875
7.3698477,-118.4521484375,7.7490234375,22.6611328125
7.3990389,-118.0615234375,8.8720703125,19.1943359375
7.4316144,-118.3056640625,9.0185546875,14.5556640625
7.4596468,-118.5009765625,8.8720703125,10.3564453125
7.4902385,-118.8427734375,9.0673828125,8.5009765625
7.5391794,-119.2822265625,8.9208984375,7.0849609375
7.5603383,-119.1845703125,9.3115234375,6.1572265625
7.5991768,-119.0380859375,9.4580078125,3.1298828125
7.6181785,-119.4287109375,8.7255859375,-1.4599609375
7.6381874,-120.1123046875,7.9443359375,-7.1240234375
7.6905596,-120.8935546875,7.9931640625,-14.1064453125
7.7109119,-120.9423828125,7.6025390625,-19.1845703125
7.7468362,-122.2119140625,6.4794921875,-26.0693359375
7.7680936,-123.2861328125,5.4541015625,-31.2451171875
7.7910378,-124.1162109375,4.0869140625,-36.0302734375
7.8216857,-124.8486328125,3.4521484375,-40.6201171875
7.8703431,-125.3857421875,2.7197265625,-44.4775390625
7.8905515,-125.6787109375,1.7919921875,-47.6513671875
7.9283528,-126.6064453125,0.4248046875,-50.9716796875
7.9475818,-126.6552734375,-0.4541015625,-55.3662109375
7.9884015,-127.5830078125,-1.9189453125,-60.6396484375
8.0084313,-128.6083984375,-2.8955078125,-64.8388671875
8.0500008,-128.9013671875,-2.7490234375,-62.9345703125
8.0714183,-129.6337890625,-0.7958984375,-43.0615234375
8.1060509,-129.2919921875,0.3271484375,-14.6923828125
8.1273839,-127.7294921875,2.8173828125,5.8642578125
8.1679782,-123.5791015625,3.7451171875,12.6025390625
8.1882679,-121.6748046875,4.0380859375,11.0400390625
8.2297068,-120.6494140625,4.4775390625,8.2080078125
8.2508478,-120.3076171875,5.1123046875,3.4228515625
8.2877273,-120.0146484375,5.8447265625,-1.7041015625
8.3087956,-120.0634765625,6.0888671875,-4.9267578125
8.344279,-120.7958984375,6.4306640625,-5.7568359375
8.3644197,-121.2353515625,5.6982421875,-6.1962890625
8.4096293,-120.7470703125,5.4541015625,-6.6845703125
8.4286887,-120.3076171875,5.6005859375,-9.0283203125
8.4700769,-121.0888671875,5.2587890625,-13.3740234375
8.4901569,-121.7236328125,4.4287109375,-18.5498046875
8.5254526,-122.8466796875,3.9404296875,-24.3603515625
8.5468418,-123.3837890625,3.9892578125,-30.1220703125
8.6017382,-123.9208984375,2.2802734375,-35.2978515625
8.6213268,-124.9462890625,1.4990234375,-39.8876953125
8.636544,-125.3369140625,0.5224609375,-44.3310546875
8.6682162,-125.4345703125,-0.8935546875,-47.2119140625
8.710208,-126.2646484375,-1.9189453125,-51.0693359375
8.7304583,-126.8505859375,-2.3095703125,-55.0732421875
8.7647639,-127.7783203125,-3.8232421875,-59.3212890625
8.7862856,-128.1201171875,-3.4814453125,-63.0322265625
8.8307907,-128.2666015625,-2.6025390625,-56.7333984375
8.8521199,-129.3408203125,-1.3818359375,-35.3955078125
8.888556,-128.9501953125,0.3759765625,-9.8583984375
8.9099554,-126.3623046875,1.0595703125,5.9619140625
8.9486299,-123.0908203125,1.7919921875,10.4052734375
8.9686402,-121.1376953125,3.1591796875,9.1357421875
9.0211304,-120.3076171875,3.5498046875,4.9853515625
9.0421365,-120.1611328125,4.1357421875,-0.3369140625
9.0577703,-119.9169921875,4.3310546875,-6.0498046875
9.1007342,-120.2099609375,5.0634765625,-8.7353515625
9.1306944,-120.6982421875,4.5751953125,-9.3701171875
9.1669225,-120.9912109375,5.0146484375,-9.4677734375
9.1809912,-120.8447265625,4.2333984375,-10.9814453125
9.220837,-120.7958984375,4.1845703125,-14.5947265625
9.2423007,-121.0400390625,4.2822265625,-18.5498046875
9.2776749,-121.7236328125,3.5009765625,-24.5068359375
9.2995129,-122.5537109375,2.5244140625,-29.8779296875
9.3404315,-123.3349609375,1.7919921875,-34.8095703125
9.3605833,-123.9697265625,0.7177734375,-40.3271484375
9.3983653,-124.9462890625,0.1806640625,-44.4775390625
9.4205793,-125.0439453125,-0.5517578125,-47.8955078125
9.460433,-125.8251953125,-1.4794921875,-52.1435546875
9.4902408,-126.7529296875,-2.9443359375,-55.9521484375
9.5298535,-126.4111328125,-4.0185546875,-59.8095703125
9.5500705,-127.4365234375,-3.4814453125,-62.0068359375
9.5867109,-127.8271484375,-1.9677734375,-50.3857421875
9.6084004,-128.4619140625,-0.6494140625,-26.0693359375
9.6439874,-127.8271484375,1.9384765625,0.2001953125
9.6639321,-125.4833984375,2.7197265625,14.3603515625
9.7021758,-121.9677734375,4.2333984375,17.4365234375
9.7229899,-120.4052734375,4.5751953125,16.2646484375
9.7715009,-118.8427734375,5.5517578125,13.4814453125
9.7904626,-118.5498046875,6.0888671875,8.7939453125
9.8103886,-118.0615234375,6.7724609375,4.8876953125
9.8443745,-118.5498046875,6.7724609375,2.3974609375
9.8841521,-119.0869140625,7.5048828125,1.3232421875
9.9043771,-119.2333984375,7.4072265625,0.4443359375
9.9425609,-119.1845703125,7.4072265625,-0.3857421875
9.96257,-118.9404296875,6.8701171875,-4.1943359375
10.0042953,-119.5751953125,6.3330078125,-8.6376953125
10.0264864,-120.0146484375,5.7470703125,-14.9853515625
10.0646195,-120.2587890625,5.3076171875,-20.8935546875
10.0848374,-121.5771484375,5.3564453125,-26.3623046875
10.1240063,-122.4072265625,4.6240234375,-32.0751953125
10.1453507,-122.5048828125,3.8427734375,-36.1279296875
10.1836266,-123.4326171875,3.1103515625,-40.0341796875
10.2041919,-124.4091796875,1.6943359375,-43.7939453125
10.2472931,-124.6533203125,1.0107421875,-48.0419921875
10.2687741,-125.4345703125,-0.1611328125,-52.2412109375
10.3070989,-125.9716796875,0.1318359375,-54.9755859375
10.3272065,-126.5087890625,1.1572265625,-44.4287109375
10.3646707,-127.1435546875,3.7451171875,-18.7939453125
10.393644,-126.9970703125,5.8447265625,10.2099609375
10.4311236,-124.7509765625,7.0654296875,23.5400390625
10.4512111,-120.8447265625,8.3349609375,27.3974609375
10.5026374,-118.2080078125,10.0927734375,27.3486328125
10.524021,-117.3779296875,10.1416015625,25.7373046875
10.5352449,-116.8408203125,11.3134765625,21.4404296875
10.5826164,-115.7666015625,11.7041015625,16.7529296875
10.613965,-116.0107421875,12.2900390625,14.4580078125
10.6252484,-117.1337890625,12.2412109375,12.8466796875
10.6683446,-117.1826171875,12.7294921875,12.3095703125
10.6875134,-116.8408203125,12.9248046875,10.0146484375
10.7326781,-117.0361328125,12.4853515625,6.9873046875
10.7450031,-117.5244140625,12.4853515625,1.1279296875
10.7853402,-117.7197265625,11.6552734375,-5.3173828125
10.8076407,-118.5009765625,10.5322265625,-10.5419921875
10.8469717,-119.9658203125,9.7509765625,-16.6455078125
10.8670281,-120.7958984375,8.9208984375,-22.4072265625
10.9083554,-121.2841796875,8.8720703125,-26.4111328125
10.9298964,-121.8212890625,7.4560546875,-30.7080078125
10.9683651,-123.1396484375,6.8701171875,-35.1513671875
10.9927174,-122.8955078125,5.9423828125,-39.0087890625
11.0312076,-124.2138671875,4.7705078125,-43.2568359375
11.0524621,-124.2626953125,3.6474609375,-47.7001953125
11.0912877,-125.3369140625,3.6474609375,-50.4345703125
11.1117831,-126.0693359375,5.5517578125,-41.2060546875
11.1525874,-126.3134765625,7.0654296875,-15.8642578125
11.1706152,-126.5576171875,9.3603515625,13.0419921875
11.2115064,-124.9462890625,10.9228515625,27.8857421875
11.2312767,-120.7958984375,12.3388671875,30.8642578125
11.2703239,-117.7197265625,13.4619140625,31.4990234375
11.2921782,-116.3037109375,14.3896484375,29.6923828125
11.332155,-115.8154296875,14.9755859375,26.1279296875
11.3512058,-115.5712890625,15.0732421875,20.8056640625
11.3923885,-115.4248046875,15.7568359375,17.4365234375
11.4135942,-116.5966796875,15.6591796875,16.8994140625
11.4506185,-117.0849609375,16.1962890625,15.8740234375
11.4709494,-116.9384765625,16.2451171875,14.9951171875
11.5113025,-117.2314453125,15.4638671875,11.0400390625
11.5322091,-117.4267578125,14.6826171875,5.4736328125
11.5734176,-117.9638671875,14.8291015625,0.1513671875
11.5936646,-118.9404296875,13.8037109375,-5.6103515625
11.6342118,-119.4287109375,13.7548828125,-12.2998046875
11.6511462,-120.5517578125,12.4853515625,-17.0361328125
11.6944113,-121.1376953125,12.0947265625,-22.0654296875
11.710976,-122.1630859375,11.1181640625,-25.1416015625
11.7563361,-122.4072265625,9.6533203125,-28.5595703125
11.7748619,-123.7744140625,9.1650390625,-33.0029296875
11.8016503,-123.5791015625,7.6025390625,-37.0556640625
11.841843,-124.2138671875,6.3818359375,-41.2548828125
11.861906,-124.9951171875,6.4306640625,-45.5029296875
11.892319,-125.6298828125,7.1630859375,-43.4521484375
11.9318035,-125.8740234375,8.0908203125,-25.6298828125
11.955417,-126.9970703125,8.9208984375,2.2509765625
12.0017552,-126.4599609375,10.7763671875,21.6357421875
12.0153741,-123.8232421875,11.3134765625,27.9833984375
12.053923,-120.2099609375,13.0224609375,28.1298828125
12.0778985,-118.3056640625,12.6806640625,25.7373046875
12.1271941,-117.7197265625,12.7294921875,20.9033203125
12.1332727,-116.7919921875,13.3154296875,15.2392578125
12.1881523,-116.5966796875,12.9248046875,12.5537109375
12.1931392,-117.2314453125,12.8759765625,11.8701171875
12.224789,-117.5732421875,12.6806640625,11.6259765625
12.2560971,-117.4755859375,13.0712890625,10.6982421875
12.2849933,-117.5732421875,12.6806640625,7.5244140625
12.3138601,-117.5244140625,11.9482421875,3.1787109375
12.3478107,-117.5244140625,11.3623046875,-2.2900390625
12.3746132,-118.5009765625,10.5322265625,-8.6376953125
12.4078612,-119.5751953125,9.6533203125,-13.2275390625
12.4383266,-120.2099609375,8.8720703125,-19.2822265625
12.4658724,-120.8935546875,8.5302734375,-24.2138671875
12.4978962,-121.6748046875,6.6259765625,-28.0712890625
12.5267221,-122.0166015625,5.8447265625,-32.1728515625
12.5570512,-122.8955078125,4.2333984375,-35.9814453125
12.588978,-123.5302734375,3.5009765625,-39.6435546875
12.6168739,-123.5302734375,2.4755859375,-44.4775390625
12.6456081,-124.1162109375,2.8173828125,-45.6494140625
12.6945572,-125.2392578125,3.5498046875,-32.5634765625
12.7146412,-125.8740234375,5.5029296875,-6.7333984375
12.735524,-126.2646484375,6.8701171875,19.1943359375
12.7866566,-124.3115234375,7.7978515625,29.3994140625
12.8078611,-120.6982421875,9.4091796875,31.0595703125
12.8451346,-117.6220703125,10.4833984375,29.6435546875
12.8651897,-116.3525390625,10.6787109375,26.0302734375
12.8883059,-115.7666015625,10.3369140625,21.6357421875
12.9207278,-114.9853515625,10.8740234375,16.7529296875
12.9660304,-114.6923828125,10.7275390625,15.7275390625
12.9865285,-116.0107421875,11.0693359375,15.4833984375
13.0303312,-116.6943359375,10.8251953125,14.3115234375
13.0505398,-116.4990234375,10.2392578125,12.4560546875
13.0669147,-116.3037109375,10.3857421875,8.4033203125
13.1000347,-117.0361328125,8.7255859375,3.1298828125
13.1465512,-117.3779296875,8.5791015625,-3.0712890625
13.1666415,-117.9638671875,7.1142578125,-9.3212890625
13.2072737,-119.0869140625,6.1376953125,-15.0341796875
13.2262858,-119.2333984375,5.4541015625,-20.0634765625
13.2678404,-120.7958984375,4.7705078125,-24.2626953125
13.2990908,-121.1376953125,3.1103515625,-28.7060546875
13.3140807,-121.3818359375,2.1337890625,-31.8798828125
13.3562807,-122.2607421875,1.6455078125,-35.0537109375
13.3765086,-122.1630859375,0.2783203125,-39.1064453125
13.4185384,-123.3349609375,-1.4794921875,-44.4287109375
13.4312968,-123.4814453125,-1.2353515625,-47.0166015625
13.4776578,-124.2138671875,0.3271484375,-37.4462890625
13.4977502,-125.0439453125,1.2060546875,-11.2255859375
13.5399602,-125.3369140625,3.0615234375,18.2666015625
13.5609817,-125.4345703125,4.9169921875,32.1337890625
13.6004634,-121.2353515625,6.0400390625,36.0888671875
13.6124751,-117.1337890625,8.1884765625,35.6005859375
13.6546299,-115.7177734375,8.1884765625,34.7216796875
13.6762973,-114.8388671875,8.5791015625,29.6435546875
13.7181317,-113.9111328125,8.6279296875,25.8837890625
13.7374844,-113.7646484375,9.2138671875,23.2470703125
13.7803435,-113.7646484375,8.7744140625,22.6123046875
13.8035218,-114.5947265625,9.4091796875,22.5634765625
13.8484874,-115.1318359375,9.1162109375,20.2197265625
13.8691247,-115.2294921875,8.6279296875,16.6552734375
13.882198,-115.1318359375,8.1884765625,10.9912109375
13.92662,-115.3759765625,7.8955078125,4.7412109375
13.9479882,-116.3525390625,6.6748046875,-1.3134765625
13.9833115,-116.7919921875,6.2353515625,-7.3681640625
14.0033821,-117.6708984375,5.6005859375,-13.0322265625
14.0493221,-118.8916015625,4.3798828125,-17.5244140625
14.0693827,-119.5263671875,3.0615234375,-22.7001953125
14.1054888,-119.7705078125,2.1337890625,-26.2158203125
14.1254605,-121.0888671875,1.2548828125,-30.3662109375
14.170453,-121.2353515625,0.1806640625,-34.1259765625
14.1908764,-122.4072265625,-1.6259765625,-37.5439453125
14.2289189,-122.9931640625,-2.4072265625,-42.2314453125
14.2499403,-123.1396484375,-3.3837890625,-47.9931640625
14.2899944,-123.6279296875,-3.6279296875,-51.1669921875
14.3190399,-124.4580078125,-2.7978515625,-44.5751953125
14.3388478,-125.0927734375,-1.1376953125,-19.3310546875
14.366444,-125.5322265625,0.9130859375,12.3583984375
14.4107838,-125.4345703125,2.0361328125,29.8876953125
14.430899,-123.4814453125,3.3056640625,35.2587890625
14.4741606,-118.4033203125,5.5029296875,35.4052734375
14.4938921,-116.2060546875,6.3818359375,35.0634765625
14.5313826,-114.7412109375,6.3818359375,32.1337890625
14.5527819,-113.6181640625,7.6025390625,27.1044921875
14.5913017,-113.5693359375,7.4072265625,24.6142578125
14.6104244,-112.9345703125,7.1142578125,23.3447265625
14.6460568,-113.6669921875,7.2119140625,22.3681640625
14.6692617,-113.9111328125,7.2119140625,20.4150390625
14.7064072,-114.0087890625,7.5537109375,17.0947265625
14.7306013,-114.2529296875,7.0166015625,12.2119140625
14.7715134,-114.4482421875,5.9912109375,5.9130859375
14.7916681,-114.9853515625,6.0400390625,-0.2392578125
14.8311805,-116.4013671875,5.2587890625,-5.9033203125
14.8522959,-117.3291015625,4.3798828125,-11.8115234375
14.8889401,-117.8662109375,3.2568359375,-17.8173828125
14.910297,-118.7939453125,1.9873046875,-22.4072265625
14.9496692,-119.6240234375,0.9619140625,-26.9970703125
14.9711305,-120.2099609375,0.2783203125,-30.6591796875
15.013339,-120.9912109375,-0.2587890625,-35.1513671875
15.0333647,-121.2353515625,-2.1142578125,-38.5693359375
15.0734841,-122.4560546875,-2.7490234375,-43.0126953125
15.0949621,-122.7978515625,-4.1162109375,-47.1630859375
15.1330176,-123.7255859375,-5.0927734375,-52.6806640625
15.1539517,-124.2138671875,-5.8251953125,-57.2705078125
15.1920853,-124.2138671875,-5.1416015625,-55.4638671875
15.213277,-125.0439453125,-4.0185546875,-36.1279296875
15.2553047,-126.1669921875,-1.8212890625,-5.1220703125
15.2757017,-126.3623046875,-0.5517578125,17.8271484375
15.312295,-125.5810546875,1.3525390625,26.5673828125
15.3334989,-122.0654296875,1.6943359375,27.7392578125
15.3750709,-117.4267578125,2.5244140625,25.8837890625
15.3955892,-116.4990234375,2.6220703125,23.2958984375
15.4436977,-115.2294921875,3.5986328125,18.4130859375
15.4636165,-115.1318359375,3.5498046875,14.6533203125
15.4817609,-114.8388671875,3.6474609375,13.6279296875
15.5140713,-115.0830078125,3.8916015625,13.3349609375
15.5510851,-115.7177734375,3.8427734375,12.0166015625
15.5754403,-115.7666015625,3.2568359375,9.4287109375
15.6119279,-116.4013671875,3.4521484375,5.0830078125
15.6319291,-116.6455078125,2.4755859375,-0.1904296875
15.680105,-116.8408203125,2.1826171875,-6.4892578125
15.6943014,-117.5732421875,1.2548828125,-12.5439453125
15.7383437,-118.6962890625,0.4736328125,-18.4033203125
15.771607,-119.0869140625,-0.0634765625,-23.8232421875
15.7828038,-120.0146484375,-0.8447265625,-28.4619140625
15.8305301,-121.1865234375,-1.9677734375,-33.5400390625
15.8495879,-121.2841796875,-3.4814453125,-36.6650390625
15.8898,-121.6748046875,-4.4580078125,-39.4970703125
15.90996,-122.6025390625,-5.2880859375,-43.5498046875
15.9582993,-122.9931640625,-6.8017578125,-48.5302734375
15.9783614,-123.2373046875,-7.5341796875,-52.9248046875
15.9967036,-124.3603515625,-8.9501953125,-57.2216796875
16.0369248,-124.5068359375,-8.7060546875,-58.1494140625
16.0561095,-125.4833984375,-7.3388671875,-41.4990234375
16.0981258,-126.4111328125,-6.6064453125,-15.4248046875
16.1183585,-127.0947265625,-6.0693359375,8.5498046875
16.1606362,-126.7529296875,-4.3603515625,17.8759765625
16.1918115,-123.4814453125,-3.5791015625,19.5361328125
16.2063783,-119.8681640625,-2.6025390625,16.5576171875
16.2497925,-118.1591796875,-2.4072265625,12.2607421875
16.2699854,-116.9384765625,-2.5537109375,7.4267578125
16.2961569,-117.0361328125,-2.1142578125,2.5927734375
16.3374727,-117.1826171875,-1.9677734375,1.9091796875
16.3575893,-117.7685546875,-2.0654296875,1.4208984375
16.403183,-118.2080078125,-2.0654296875,0.2001953125
16.4201672,-117.7197265625,-2.1630859375,-2.0947265625
16.4607116,-118.6474609375,-2.6025390625,-6.5869140625
16.4919578,-118.1103515625,-4.1650390625,-11.3232421875
16.5093197,-119.0869140625,-4.1162109375,-17.7197265625
16.5527317,-119.5263671875,-4.9462890625,-24.0673828125
16.5721027,-120.3564453125,-5.6787109375,-29.8779296875
16.6106043,-120.9912109375,-6.5576171875,-34.0771484375
16.63061,-121.6259765625,-6.6064453125,-39.0576171875
16.6694536,-122.4560546875,-8.4619140625,-42.1826171875
16.6895166,-123.0419921875,-8.7548828125,-45.6494140625
16.7177538,-123.8232421875,-10.3662109375,-49.0185546875
16.761676,-123.9697265625,-10.8544921875,-53.9990234375
16.7782306,-124.9462890625,-11.9775390625,-57.9541015625
16.8081596,-125.6298828125,-11.8310546875,-61.4697265625
16.8494659,-125.7763671875,-10.8544921875,-53.5595703125
16.8806546,-126.4111328125,-9.0478515625,-29.4384765625
16.8983952,-127.6806640625,-8.1201171875,-0.4833984375
16.9424314,-127.7783203125,-6.2158203125,15.9228515625
16.9588445,-126.3134765625,-4.7509765625,19.8291015625
17.0020274,-122.3095703125,-4.0185546875,19.5361328125
17.0212203,-120.1123046875,-3.6767578125,17.0947265625
17.0539526,-118.4033203125,-2.9443359375,13.1396484375
17.0924161,-118.1591796875,-2.7978515625,8.3544921875
17.1110845,-117.7197265625,-2.9443359375,5.5224609375
17.1403735,-117.1337890625,-2.5048828125,4.3017578125
17.1724671,-118.2568359375,-2.3095703125,3.0322265625
17.2022953,-118.6474609375,-2.4072265625,2.4462890625
17.2293475,-118.3056640625,-2.7978515625,-0.6787109375
17.2736324,-119.1357421875,-2.5537109375,-5.7568359375
17.2921226,-119.2333984375,-3.3349609375,-11.5673828125
17.3235209,-119.4775390625,-2.8466796875,-17.6220703125
17.3533124,-119.8193359375,-4.5068359375,-23.1396484375
17.3802522,-120.7470703125,-4.9951171875,-29.1455078125
17.4146243,-121.7724609375,-6.3134765625,-33.7841796875
17.4425966,-122.0654296875,-6.7041015625,-38.6181640625
17.4759571,-123.0419921875,-8.1201171875,-42.7197265625
17.504354,-123.7744140625,-8.5595703125,-45.1611328125
17.5338114,-124.4580078125,-9.5849609375,-49.2626953125
17.5667832,-124.6533203125,-10.7080078125,-53.4130859375
17.5933949,-124.7998046875,-11.4404296875,-58.5400390625
17.6220854,-125.3369140625,-11.5869140625,-61.6162109375
17.6551474,-126.4111328125,-11.1474609375,-58.1005859375
17.6855558,-127.2900390625,-9.0478515625,-36.2744140625
17.7132359,-128.3154296875,-7.4365234375,-6.2939453125
17.7472836,-128.0712890625,-5.4345703125,15.0927734375
17.775084,-128.1689453125,-4.1650390625,22.0263671875
17.8029528,-125.1416015625,-3.1884765625,22.9052734375
17.8368076,-121.7236328125,-2.4072265625,22.3681640625
17.8660442,-119.7705078125,-1.2841796875,20.0732421875
17.897378,-118.3056640625,-0.4541015625,14.3115234375
17.9254049,-118.1591796875,0.3271484375,10.5029296875
17.9536936,-117.9150390625,0.4736328125,9.8193359375
18.0050811,-117.3779296875,0.4736328125,8.6474609375
18.0259976,-118.3544921875,1.1572265625,7.2802734375
18.0442849,-118.5009765625,1.2548828125,3.6669921875
18.095599,-118.8427734375,0.0341796875,-0.7275390625
18.1168329,-119.1357421875,-0.0146484375,-6.2451171875
18.1330799,-118.8916015625,-0.4541015625,-12.6416015625
18.1688209,-120.2099609375,-0.8447265625,-18.5498046875
18.1957832,-120.8447265625,-2.1630859375,-24.4580078125
18.2248946,-120.6005859375,-2.5537109375,-29.4873046875
18.2572671,-121.8212890625,-3.2373046875,-34.4677734375
18.2857154,-122.2119140625,-4.2138671875,-38.4228515625
18.3459124,-123.1396484375,-4.7998046875,-41.7919921875
18.3468979,-124.5068359375,-6.0205078125,-45.6982421875
18.3757767,-124.8486328125,-7.1435546875,-48.7255859375
18.4241279,-125.0927734375,-8.3642578125,-54.0478515625
18.4445831,-126.2158203125,-9.8291015625,-59.2724609375
18.4876525,-126.0693359375,-9.6337890625,-63.8623046875
18.499379,-126.7529296875,-9.8291015625,-64.8388671875
18.5277481,-127.6806640625,-8.1201171875,-47.7978515625
18.5621878,-128.4130859375,-5.6787109375,-18.1591796875
18.6080036,-129.4384765625,-3.9697265625,9.2822265625
18.6275449,-129.7802734375,-2.7001953125,20.2197265625
18.6743778,-127.4365234375,-1.8212890625,22.2705078125
18.69461,-124.3603515625,0.5712890625,21.8798828125
18.7079827,-120.9912109375,1.4990234375,20.7568359375
18.7709862,-119.5263671875,1.4501953125,16.0693359375
18.7719929,-118.3544921875,2.1826171875,11.4794921875
18.8154027,-117.7685546875,2.5732421875,9.3798828125
18.8354712,-117.4755859375,2.4267578125,8.1591796875
18.8734207,-117.8173828125,3.5009765625,6.0107421875
18.8944998,-118.5498046875,3.3544921875,4.5458984375
18.9356381,-119.0380859375,3.4521484375,-0.5322265625
18.9569272,-118.6962890625,2.8173828125,-5.5615234375
18.9945341,-118.3056640625,2.4267578125,-12.0068359375
19.015959,-119.2333984375,2.1337890625,-17.6708984375
19.0553218,-120.0634765625,1.7431640625,-23.5791015625
19.075855,-121.0400390625,0.1318359375,-28.9990234375
19.1136822,-121.4306640625,-0.5517578125,-34.1748046875
19.1338558,-122.3583984375,-2.1142578125,-37.8369140625
19.1727376,-123.1884765625,-2.4072265625,-42.2802734375
19.1949787,-124.1162109375,-3.3349609375,-47.0654296875
19.2362102,-124.3603515625,-4.2138671875,-50.1904296875
19.2577908,-124.8486328125,-5.6787109375,-53.8037109375
19.3012286,-125.5322265625,-6.7529296875,-58.4912109375
19.3221959,-125.9716796875,-7.5341796875,-62.5439453125
19.3429955,-126.7529296875,-9.2919921875,-67.8173828125
19.3717001,-127.4853515625,-10.0244140625,-71.9677734375
19.4130818,-128.0712890625,-9.0478515625,-74.7021484375
19.4337251,-128.7548828125,-7.2900390625,-60.9814453125
19.4765753,-129.2919921875,-5.8740234375,-32.9052734375
19.4980583,-130.1708984375,-4.1650390625,-6.0986328125
19.5376004,-131.0498046875,-3.4326171875,7.7685546875
19.5578502,-130.2197265625,-0.6982421875,11.1865234375
19.5968935,-126.6552734375,-0.5517578125,10.5517578125
19.6169148,-123.2373046875,0.7177734375,8.0126953125
19.6553174,-121.1865234375,0.2783203125,4.0087890625
19.6756105,-120.6005859375,1.3525390625,-0.4345703125
19.7176107,-119.9658203125,1.8896484375,-2.3388671875
19.7386783,-119.5751953125,2.0361328125,-2.9736328125
19.7859005,-120.0146484375,1.8408203125,-2.7294921875
19.804712,-120.3564453125,2.0361328125,-5.0732421875
19.8414249,-120.6982421875,2.4755859375,-8.0029296875
19.862248,-120.7470703125,1.6943359375,-13.3251953125
19.8985607,-120.5517578125,1.3525390625,-18.7939453125
19.9199404,-120.2587890625,0.7177734375,-24.6044921875
19.9617777,-121.3818359375,0.4248046875,-29.4873046875
19.9825939,-121.9189453125,-0.6005859375,-34.7607421875
20.0195554,-122.6513671875,-1.0888671875,-38.8623046875
20.0407283,-123.5791015625,-2.4560546875,-42.6220703125
20.0754603,-123.8720703125,-3.5302734375,-45.7958984375
20.0979595,-124.8974609375,-4.3603515625,-47.7490234375
20.1408099,-125.4833984375,-5.1416015625,-52.0947265625
20.1619873,-125.9716796875,-5.7763671875,-55.2197265625
20.201111,-125.9716796875,-7.6806640625,-60.4931640625
20.2201632,-126.9482421875,-8.2666015625,-64.0576171875
20.2614255,-127.2900390625,-7.5830078125,-63.5205078125
20.2828707,-127.6318359375,-6.0693359375,-45.2099609375
20.3220779,-128.5107421875,-4.6533203125,-20.0146484375
20.3425857,-129.2431640625,-3.8720703125,0.9814453125
20.3815881,-129.3896484375,-2.7001953125,9.7705078125
20.4016235,-128.1689453125,-1.7724609375,9.8193359375
20.4471759,-124.8486328125,-0.4541015625,6.7919921875
20.4773874,-122.0654296875,-0.5517578125,2.4462890625
20.4904357,-120.2587890625,0.2783203125,-3.7060546875
20.5320614,-119.6240234375,0.0341796875,-7.0751953125
20.5535314,-120.1611328125,0.5712890625,-7.7099609375
20.5973255,-119.5751953125,0.5224609375,-7.8564453125
20.6183992,-120.5029296875,0.3759765625,-8.1005859375
20.6524901,-120.7470703125,0.1806640625,-10.7373046875
20.6730648,-120.4541015625,-0.1123046875,-14.7900390625
20.7118507,-120.6005859375,-0.5029296875,-20.3564453125
20.7320871,-120.3564453125,-1.5283203125,-26.7041015625
20.780015,-120.9912109375,-2.2607421875,-31.5869140625
20.7998356,-121.0888671875,-3.0908203125,-36.7626953125
20.8374443,-122.4072265625,-4.0185546875,-40.5224609375
20.8565586,-122.5537109375,-4.7509765625,-44.3798828125
20.8955115,-123.2861328125,-5.8251953125,-46.9677734375
20.91548,-123.9697265625,-6.2646484375,-50.5322265625
20.9546047,-124.7021484375,-7.1923828125,-54.4384765625
20.9746064,-124.9951171875,-8.8037109375,-58.5888671875
21.0176587,-125.5322265625,-9.3408203125,-62.4951171875
21.0384906,-125.6298828125,-8.5595703125,-60.5908203125
21.0742745,-126.5576171875,-6.5087890625,-40.8154296875
21.0952845,-126.9970703125,-4.3603515625,-13.4716796875
21.1356962,-127.5341796875,-3.2373046875,7.3291015625
21.1560878,-128.2666015625,-1.4794921875,16.0693359375
21.1955793,-127.4365234375,-0.6494140625,16.8017578125
21.2156862,-123.8232421875,0.6201171875,15.2392578125
21.2596719,-120.8935546875,0.7177734375,12.4560546875
21.2719234,-119.0869140625,1.7431640625,7.8173828125
21.3018621,-118.9892578125,2.1826171875,4.6923828125
21.3471159,-117.6220703125,2.4267578125,3.0322265625
21.3673646,-117.2802734375,2.4755859375,2.6416015625
21.41273,-117.5244140625,2.9150390625,1.4697265625
21.4328147,-118.1103515625,2.5244140625,-0.1904296875
21.4698479,-118.5009765625,2.4267578125,-5.1708984375
21.4868156,-117.8662109375,2.3291015625,-10.2490234375
21.5302795,-118.2080078125,1.1083984375,-16.6455078125
21.5439868,-118.6474609375,1.0595703125,-21.8212890625
21.5895038,-119.0869140625,-0.3564453125,-27.2900390625
21.6086591,-120.1123046875,-0.9912109375,-31.4404296875
21.6511173,-120.8447265625,-1.6259765625,-35.4443359375
21.6659451,-121.2353515625,-2.4072265625,-39.4970703125
21.7094448,-121.8212890625,-3.4814453125,-42.0849609375
21.7315815,-122.7001953125,-4.4091796875,-45.5029296875
21.7681036,-122.8466796875,-5.3857421875,-50.2392578125
21.7857175,-123.8232421875,-6.2158203125,-54.7314453125
21.8295723,-123.8232421875,-4.7021484375,-56.3916015625
21.845359,-124.5068359375,-3.7255859375,-43.1103515625
21.8798903,-125.1904296875,-1.9677734375,-15.4736328125
21.9220195,-126.0693359375,0.1806640625,11.2841796875
21.9370439,-126.3623046875,1.4990234375,24.1748046875
21.9700298,-126.5087890625,3.4521484375,27.2998046875
22.0122139,-124.0185546875,5.5029296875,27.5439453125
22.0272854,-119.9169921875,5.3564453125,26.8115234375
22.0598942,-118.1591796875,7.1142578125,22.5146484375
22.0887693,-116.4013671875,7.0654296875,18.1689453125
22.1306515,-115.7666015625,7.9931640625,15.9716796875
22.1496523,-114.8388671875,7.9931640625,14.7509765625
22.1776278,-114.9853515625,8.1396484375,13.9208984375
22.2079922,-115.6689453125,8.2373046875,11.7236328125
22.2396804,-115.9130859375,7.8466796875,8.3544921875
22.2679464,-115.8154296875,7.1630859375,3.3740234375
22.3020128,-116.2548828125,7.2119140625,-2.5830078125
22.3309919,-116.6943359375,5.5517578125,-7.6611328125
22.3712918,-116.6455078125,5.2587890625,-14.3505859375
22.3903454,-116.9873046875,4.2822265625,-19.3310546875
22.4197302,-118.0126953125,3.3544921875,-23.8720703125
22.4473146,-119.0380859375,2.9150390625,-27.9248046875
22.480823,-119.4287109375,1.5966796875,-31.7822265625
22.5092431,-120.2099609375,1.0107421875,-34.9560546875
22.5372288,-121.0400390625,-0.3564453125,-38.5205078125
22.5715613,-121.5283203125,-0.9912109375,-41.8896484375
22.6010892,-122.3095703125,-3.0419921875,-47.3095703125
22.6281812,-122.1630859375,-4.6044921875,-51.8994140625
22.6605575,-123.2861328125,-4.2138671875,-56.0009765625
22.6911325,-123.7744140625,-2.8955078125,-49.6044921875
22.7226812,-123.7744140625,-0.6494140625,-24.7998046875
22.7507143,-124.6533203125,1.1572265625,5.9619140625
22.7787242,-125.0927734375,2.8662109375,24.1748046875
22.8119686,-126.0693359375,4.9169921875,30.7666015625
22.8406162,-125.1416015625,6.5771484375,31.5966796875
22.8702155,-121.6748046875,7.9931640625,31.8408203125
22.9026466,-118.3056640625,7.6513671875,30.2783203125
22.9303735,-116.4990234375,8.5791015625,25.0537109375
22.9594389,-114.9853515625,8.9208984375,22.2705078125
22.9948886,-114.9365234375,9.4580078125,19.5361328125
23.0198654,-114.1552734375,9.1650390625,19.6826171875
23.0504949,-114.7412109375,8.8720703125,18.7548828125
23.0824264,-115.3271484375,8.3349609375,15.2392578125
23.1128347,-115.5224609375,8.6279296875,10.4541015625
23.1443844,-115.6689453125,7.7490234375,4.9365234375
23.1730189,-115.1318359375,6.9189453125,-0.8251953125
23.2023573,-116.4013671875,5.8935546875,-6.9775390625
23.2350311,-116.9384765625,5.0634765625,-12.0068359375
23.2641705,-118.2080078125,4.3310546875,-17.1826171875
23.296097,-118.9892578125,3.4521484375,-21.4794921875
23.3241216,-119.0869140625,2.8662109375,-25.3857421875
23.3533906,-120.3564453125,2.0361328125,-29.2919921875
23.415309,-120.9423828125,0.1318359375,-33.2958984375
23.4174857,-121.2841796875,-1.4306640625,-36.8115234375
23.4455965,-121.8212890625,-2.6513671875,-41.1083984375
23.4949256,-122.1630859375,-3.3349609375,-45.1123046875
23.5030824,-123.3837890625,-4.9951171875,-50.5810546875
23.5336913,-123.3349609375,-4.6533203125,-55.1220703125
23.5675711,-124.8486328125,-4.5556640625,-53.4130859375
23.5947809,-125.6787109375,-2.7978515625,-33.2958984375
23.6237351,-126.1181640625,-0.9912109375,-4.7802734375
23.6562816,-126.6064453125,0.4736328125,18.5107421875
23.686283,-127.4365234375,1.5966796875,26.3720703125
23.7175576,-127.1923828125,3.1103515625,28.3740234375
23.7659718,-125.2880859375,4.1357421875,26.3720703125
23.7850716,-121.3818359375,4.2822265625,24.2724609375
23.8082858,-119.8681640625,4.7705078125,19.3896484375
23.8370205,-118.2568359375,5.2099609375,15.9228515625
23.8815704,-117.9638671875,5.6982421875,14.6533203125
23.901979,-117.5732421875,5.0634765625,13.9697265625
23.9438392,-117.7197265625,4.8681640625,13.8232421875
23.9632308,-117.9150390625,4.7705078125,10.9912109375
24.0030893,-118.1591796875,3.6474609375,6.4501953125
24.022495,-118.5009765625,3.0126953125,1.2255859375
24.0738811,-118.4521484375,2.5732421875,-3.3154296875
24.0941081,-118.7451171875,2.1826171875,-9.4677734375
24.1051394,-119.6728515625,0.6689453125,-15.1806640625
24.1553536,-120.1123046875,-0.2099609375,-20.4052734375
24.175771,-120.9423828125,-1.8212890625,-23.9697265625
24.2134076,-121.7724609375,-2.5537109375,-26.9970703125
24.2456641,-122.6513671875,-4.2626953125,-30.4150390625
24.2575944,-122.5048828125,-4.9951171875,-34.3212890625
24.3082687,-123.7255859375,-6.2158203125,-37.2509765625
24.328318,-124.2138671875,-7.6318359375,-41.9384765625
24.3671417,-124.6533203125,-8.9013671875,-45.6494140625
24.3885612,-124.9462890625,-9.6337890625,-50.2392578125
24.4339817,-124.8974609375,-7.9736328125,-45.6982421875
24.4536855,-126.8994140625,-6.9482421875,-25.3369140625
24.4666378,-126.9482421875,-5.9228515625,1.0791015625
24.5288615,-128.1689453125,-4.3603515625,19.6337890625
24.5298477,-127.9736328125,-3.0419921875,25.3955078125
24.5630656,-128.3154296875,-2.0654296875,24.7119140625
24.6081071,-126.8994140625,-1.5771484375,22.5634765625
24.627273,-122.6513671875,-1.4794921875,18.1201171875
24.6706533,-120.7470703125,-1.8701171875,12.7001953125
24.6994377,-120.0146484375,-1.1865234375,10.0146484375
24.7135106,-119.5751953125,-1.6748046875,8.8916015625
24.7531307,-118.9404296875,-0.8447265625,9.3310546875
24.7730917,-119.0380859375,-2.4560546875,7.7685546875
24.8163434,-120.2587890625,-2.5537109375,4.6923828125
24.8366914,-120.2587890625,-3.7744140625,-0.3857421875
24.8782844,-119.5263671875,-3.7744140625,-5.7568359375
24.8982805,-119.3310546875,-5.4833984375,-11.2255859375
24.9215819,-119.5751953125,-5.2392578125,-16.4501953125
24.950189,-120.6982421875,-6.7041015625,-21.0888671875
24.9964417,-121.3330078125,-7.7294921875,-25.9228515625
25.0167268,-121.8212890625,-9.1455078125,-30.3662109375
25.0592353,-122.6513671875,-10.4150390625,-34.0283203125
25.0795584,-123.2861328125,-11.6357421875,-37.2998046875
25.1217625,-123.7255859375,-12.8564453125,-41.1572265625
25.1428592,-124.4091796875,-13.2470703125,-45.8935546875
25.18417,-124.9951171875,-12.9541015625,-49.3115234375
25.2038013,-125.6298828125,-12.8076171875,-43.5009765625
25.2409773,-126.2158203125,-10.4638671875,-22.9443359375
25.2541708,-126.3623046875,-8.5595703125,4.5947265625
25.2831999,-127.2412109375,-7.6806640625,23.4912109375
25.3153782,-128.4130859375,-6.0693359375,29.2529296875
25.36332,-128.3154296875,-4.4580078125,28.9111328125
25.3838497,-126.6552734375,-4.3115234375,27.4951171875
25.4330099,-122.7490234375,-3.7744140625,24.0771484375
25.4340479,-120.8935546875,-3.1396484375,19.3408203125
25.4676384,-119.4287109375,-2.7001953125,16.0693359375
25.5124111,-118.9892578125,-2.7001953125,14.2138671875
25.5336552,-118.6474609375,-2.6025390625,14.1162109375
25.5749544,-118.3544921875,-3.3837890625,12.2607421875
25.6059941,-118.8916015625,-2.9443359375,8.9404296875
25.6142679,-118.9404296875,-3.8720703125,4.0087890625
25.6596004,-119.0380859375,-4.1162109375,-1.6064453125
25.6800424,-119.0869140625,-4.9462890625,-7.8076171875
25.721376,-119.8193359375,-6.2646484375,-13.2763671875
25.7429641,-119.7216796875,-7.2900390625,-18.9404296875
25.7823503,-120.6982421875,-7.8271484375,-23.5302734375
25.8025334,-121.2841796875,-9.0478515625,-28.1689453125
25.8445186,-121.8701171875,-10.3662109375,-31.8310546875
25.8647397,-122.2119140625,-11.9775390625,-34.8583984375
25.9037569,-122.9443359375,-12.3681640625,-38.7158203125
25.9239698,-124.0673828125,-13.6865234375,-42.7685546875
25.9657207,-124.6533203125,-14.1259765625,-46.9189453125
25.9850305,-124.7998046875,-13.4912109375,-50.2392578125
26.0241354,-125.2392578125,-12.3193359375,-40.0341796875
26.0463133,-125.8740234375,-10.0732421875,-15.1318359375
26.0682288,-126.0693359375,-7.9248046875,12.8466796875
26.0960981,-127.1923828125,-6.9970703125,29.0576171875
26.145288,-127.7294921875,-5.6787109375,33.7451171875
26.1643077,-127.2412109375,-3.7255859375,34.8193359375
26.2029152,-125.2392578125,-3.2861328125,33.5498046875
26.2230435,-121.4794921875,-2.6513671875,29.7900390625
26.2669206,-119.2333984375,-1.6748046875,25.2001953125
26.2870061,-118.2568359375,-1.1865234375,22.3681640625
26.3404782,-117.5244140625,-1.0400390625,20.7568359375
26.3414713,-116.5966796875,-1.2841796875,20.2685546875
26.370758,-116.5966796875,-1.0400390625,17.9736328125
26.4179659,-116.8896484375,-1.6748046875,14.4580078125
26.4289295,-117.6220703125,-2.4560546875,9.3310546875
26.4769529,-117.6708984375,-1.9677734375,3.1787109375
26.4975511,-117.3779296875,-3.6279296875,-2.9736328125
26.5361947,-117.6220703125,-4.5556640625,-9.0771484375
26.5576481,-117.7685546875,-5.3369140625,-14.0576171875
26.5983204,-118.9404296875,-6.4599609375,-20.1611328125
26.6083132,-119.0380859375,-7.1923828125,-23.9697265625
26.6437307,-120.1123046875,-9.0478515625,-28.1689453125
26.6899941,-120.7470703125,-9.8779296875,-31.0986328125
26.6980185,-121.2353515625,-10.8056640625,-35.1025390625
26.7356702,-122.1142578125,-12.6123046875,-38.8134765625
26.7783252,-122.2607421875,-14.2236328125,-43.7451171875
26.7943651,-122.6513671875,-15.0048828125,-48.5791015625
26.8244564,-123.5302734375,-13.8330078125,-49.1162109375
26.8664751,-123.8232421875,-11.5869140625,-33.3447265625
26.8863964,-124.7509765625,-9.3896484375,-4.8291015625
26.9289477,-125.1416015625,-7.7783203125,21.5869140625
26.941101,-126.1669921875,-5.7275390625,32.1826171875
26.974723,-126.2646484375,-4.2626953125,35.2587890625
27.0206764,-126.1181640625,-3.0908203125,35.2099609375
27.0315746,-123.7255859375,-2.5537109375,34.1357421875
27.0648757,-119.8193359375,-1.7236328125,30.6201171875
27.0937596,-117.6708984375,-0.8447265625,26.4697265625
27.1218582,-116.4990234375,-0.3564453125,23.1005859375
27.1553838,-115.3759765625,-0.6005859375,22.4658203125
27.184938,-114.7412109375,-0.6982421875,21.3427734375
27.2161431,-115.1318359375,-1.0400390625,18.6083984375
27.2453372,-115.3759765625,-1.7724609375,13.6767578125
27.2746574,-115.7666015625,-1.8701171875,8.4521484375
27.307367,-115.6201171875,-2.5048828125,2.2509765625
27.3347805,-115.6201171875,-3.9697265625,-3.1201171875
27.3674538,-116.1572265625,-4.4091796875,-9.0283203125
27.3957895,-116.4013671875,-5.3369140625,-14.0087890625
27.4248427,-116.7431640625,-6.5576171875,-19.6728515625
27.4579895,-118.1103515625,-6.8994140625,-22.8466796875
27.4864899,-118.2080078125,-8.1201171875,-26.8994140625
27.5157823,-119.4287109375,-9.8291015625,-31.2939453125
27.5489402,-120.0634765625,-11.1962890625,-34.9072265625
27.5767487,-120.4052734375,-12.2216796875,-39.6435546875
27.6068633,-120.8935546875,-13.9794921875,-44.0869140625
27.6374121,-121.6748046875,-15.2978515625,-48.5302734375
27.6684951,-122.7001953125,-16.7138671875,-52.6318359375
27.693566,-122.7490234375,-15.4443359375,-55.5126953125
27.7294288,-122.9931640625,-13.6376953125,-43.1591796875
27.7582753,-123.7255859375,-11.8310546875,-16.0595703125
27.7898556,-124.4091796875,-10.6591796875,12.1142578125
27.8180106,-125.5322265625,-8.8037109375,26.5185546875
27.8466519,-125.7275390625,-7.1923828125,30.8154296875
27.8802794,-126.0693359375,-6.7041015625,29.9365234375
27.9095297,-123.8720703125,-5.8740234375,28.4228515625
27.938154,-120.5029296875,-5.4345703125,25.6396484375
27.970834,-118.0615234375,-4.2138671875,20.3173828125
27.9994699,-116.1572265625,-3.5791015625,17.7783203125
28.0294862,-115.8154296875,-4.4091796875,17.7783203125
28.0626768,-115.0830078125,-4.6533203125,16.6064453125
28.0888858,-114.3505859375,-4.1162109375,15.2392578125
28.1183408,-115.1806640625,-4.5556640625,11.2841796875
28.1503649,-115.5712890625,-5.3369140625,7.6708984375
28.1788421,-115.9619140625,-5.7275390625,1.2255859375
28.2115701,-115.6201171875,-6.9482421875,-4.1943359375
28.2415967,-115.9130859375,-7.1923828125,-9.3212890625
28.2695409,-116.5478515625,-8.3154296875,-14.7412109375
28.3005718,-116.8408203125,-9.0478515625,-18.8916015625
28.3306023,-118.0615234375,-10.5126953125,-22.8466796875
28.3597659,-118.6962890625,-11.6357421875,-26.0693359375
28.3915502,-119.4287109375,-12.8076171875,-29.0478515625
28.421619,-120.1611328125,-14.0283203125,-32.4169921875
28.4484393,-120.1123046875,-15.6884765625,-36.3232421875
28.4821714,-121.0888671875,-17.1044921875,-40.7177734375
28.5098803,-121.4306640625,-17.2509765625,-45.7470703125
28.5402345,-121.9189453125,-17.2021484375,-47.1630859375
28.5713763,-122.5537109375,-15.6884765625,-34.6142578125
28.6022592,-122.8466796875,-14.7119140625,-9.4677734375
28.6328954,-123.8232421875,-12.7587890625,15.9228515625
28.6626616,-124.1650390625,-12.1728515625,28.1787109375
28.7100237,-125.0439453125,-10.6103515625,30.1318359375
28.7230029,-125.3857421875,-9.8779296875,28.3251953125
28.7533816,-123.7255859375,-10.2685546875,25.6396484375
28.7849618,-120.0146484375,-10.1220703125,19.3896484375
28.8310911,-116.8896484375,-10.2197265625,15.5322265625
28.8515917,-115.8642578125,-9.7314453125,13.7744140625
28.8925084,-115.2294921875,-9.0966796875,13.8232421875
28.905143,-115.0830078125,-9.6826171875,13.3349609375
28.9314436,-114.8876953125,-10.1708984375,11.5771484375
28.9644331,-115.6201171875,-10.6591796875,7.9150390625
29.0101565,-115.8642578125,-10.8056640625,3.1787109375
29.0303243,-115.5712890625,-12.1728515625,-2.1923828125
29.0795557,-115.6201171875,-13.4423828125,-8.0029296875
29.0993349,-115.9619140625,-13.5400390625,-13.6669921875
29.1160997,-116.3037109375,-14.8095703125,-18.9892578125
29.1727701,-117.1337890625,-16.2744140625,-23.1396484375
29.1737135,-117.5732421875,-17.0068359375,-26.6064453125
29.2078275,-118.6474609375,-19.0087890625,-29.5361328125
29.2517993,-119.4287109375,-19.2041015625,-32.4169921875
29.2730073,-120.0146484375,-20.6201171875,-37.3974609375
29.3106509,-120.8447265625,-22.8662109375,-41.7919921875
29.3309615,-121.2353515625,-22.3291015625,-45.0634765625
29.3539171,-121.5771484375,-20.5224609375,-39.9853515625
29.3866695,-121.5771484375,-18.2763671875,-17.5244140625
29.4159276,-122.4072265625,-16.3232421875,10.8935546875
29.445597,-122.8955078125,-15.2490234375,30.1806640625
29.4766696,-123.9208984375,-13.8330078125,35.3564453125
29.506687,-123.6279296875,-12.3193359375,34.9658203125
29.555812,-124.2138671875,-11.7822265625,34.5751953125
29.5768018,-121.2353515625,-11.2939453125,31.0107421875
29.5957533,-117.3779296875,-10.7080078125,26.7138671875
29.6281848,-115.9130859375,-10.5126953125,23.3935546875
29.6578914,-114.9365234375,-10.2197265625,22.0751953125
29.6856307,-113.8134765625,-10.2197265625,22.3193359375
29.7359542,-113.2275390625,-9.6337890625,20.6103515625
29.7565174,-113.0322265625,-11.0986328125,18.0224609375
29.7777383,-113.8134765625,-11.3916015625,12.8955078125
29.8107202,-114.3505859375,-11.6845703125,7.3779296875
29.8390678,-114.5947265625,-12.5634765625,1.2255859375
29.8674891,-114.3505859375,-14.0283203125,-4.7802734375
29.8997521,-114.8876953125,-14.6142578125,-9.6142578125
29.9274905,-115.4248046875,-15.7861328125,-14.8876953125
29.9799966,-115.9130859375,-17.2998046875,-19.0380859375
29.9990653,-116.7919921875,-18.1787109375,-22.8466796875
30.0193264,-117.2802734375,-19.1552734375,-25.5322265625
30.0491855,-118.1103515625,-20.9619140625,-29.8779296875
30.0804025,-118.6474609375,-22.2802734375,-33.7841796875
30.1122816,-119.9169921875,-23.6474609375,-38.4228515625
30.1568931,-120.1611328125,-24.7216796875,-42.9638671875
30.1784285,-120.6982421875,-23.9404296875,-45.5517578125
30.2198715,-120.7958984375,-21.6455078125,-33.5400390625
30.2319879,-121.4306640625,-19.1064453125,-5.6591796875
30.2598591,-122.1142578125,-17.4951171875,23.2958984375
30.2946819,-123.2861328125,-15.8837890625,37.4560546875
30.3230193,-123.7744140625,-13.9794921875,40.9716796875
30.3506083,-123.8232421875,-11.9287109375,40.6298828125
30.397722,-123.8720703125,-11.9775390625,40.6298828125
30.4176711,-120.3564453125,-11.3916015625,37.4560546875
30.4393371,-117.0361328125,-10.7080078125,32.3779296875
30.4727883,-114.5458984375,-10.5126953125,29.4970703125
30.5007536,-113.6669921875,-9.7802734375,28.4228515625
30.5501083,-112.9833984375,-10.5126953125,27.8369140625
30.5694269,-112.7392578125,-11.0986328125,25.6884765625
30.5925039,-112.4951171875,-10.4150390625,21.8310546875
30.6238308,-113.5205078125,-11.3427734375,16.8017578125
30.6540346,-113.6669921875,-11.7822265625,11.3330078125
30.6808882,-113.8134765625,-13.1982421875,4.9365234375
30.7152328,-114.0576171875,-14.2724609375,-1.4599609375
30.7423662,-114.6435546875,-15.0048828125,-6.7822265625
30.7727963,-115.4248046875,-16.3232421875,-12.0068359375
30.806285,-115.9619140625,-17.0556640625,-16.3037109375
30.832115,-116.4501953125,-18.8623046875,-20.0634765625
30.8609577,-117.2314453125,-19.9853515625,-23.5302734375
30.8945956,-117.9150390625,-20.9619140625,-27.5830078125
30.9221568,-118.6962890625,-21.8896484375,-31.7822265625
30.9814653,-119.1845703125,-23.8916015625,-36.1279296875
31.0018335,-120.4052734375,-24.8193359375,-40.9619140625
31.0130445,-120.8447265625,-25.1611328125,-46.1865234375
31.0456851,-121.3330078125,-23.5986328125,-44.8193359375
31.0755221,-121.7236328125,-21.6943359375,-25.1904296875
31.1064851,-122.3095703125,-19.5458984375,5.6201171875
31.1368923,-122.5048828125,-18.0322265625,28.8134765625
31.16346,-123.3349609375,-16.7626953125,37.5048828125
31.1928879,-124.5556640625,-15.4443359375,39.2626953125
31.2252789,-124.7509765625,-14.1259765625,38.5302734375
31.2562967,-123.9208984375,-12.9541015625,37.4072265625
31.2840047,-120.4541015625,-12.5146484375,32.7197265625
31.3228712,-117.1826171875,-12.1728515625,29.2529296875
31.3640647,-115.4736328125,-12.2705078125,26.5185546875
31.3862609,-114.0576171875,-11.5380859375,24.9072265625
31.406694,-113.1787109375,-12.0263671875,23.8330078125
31.4551813,-113.2275390625,-12.5146484375,21.0986328125
31.4679602,-113.8623046875,-13.0029296875,17.2900390625
31.5153333,-114.6435546875,-13.9306640625,12.0654296875
31.537299,-114.7900390625,-14.4189453125,5.6689453125
31.5586529,-114.1552734375,-15.3955078125,-0.3369140625
31.5859641,-115.2294921875,-17.2509765625,-5.5615234375
31.618743,-115.4736328125,-18.0810546875,-11.2255859375
31.6488725,-115.8642578125,-18.8623046875,-15.3271484375
31.6764195,-116.6943359375,-20.0341796875,-19.5751953125
31.7094698,-117.7685546875,-20.8642578125,-23.2373046875
31.7382751,-117.8662109375,-22.8173828125,-26.8505859375
31.7667225,-118.8427734375,-24.1357421875,-30.0244140625
31.7988641,-119.5751953125,-25.2099609375,-35.3466796875
31.8288752,-120.0634765625,-26.3818359375,-40.1318359375
31.877625,-120.6982421875,-26.4306640625,-44.6728515625
31.8911368,-120.6494140625,-25.7470703125,-44.5751953125
31.9193346,-121.8212890625,-23.5498046875,-26.9970703125
31.9507599,-122.4560546875,-21.6943359375,-0.6298828125
31.9808037,-123.2861328125,-20.6201171875,21.7822265625
32.0096681,-123.5302734375,-18.9599609375,31.3525390625
32.046933,-124.5068359375,-18.1298828125,31.3037109375
32.0715162,-125.1416015625,-17.5927734375,30.1318359375
32.0993544,-124.9462890625,-17.7392578125,26.3232421875
32.1314822,-121.8701171875,-17.2998046875,21.1474609375
32.1605156,-119.2333984375,-17.2509765625,16.5576171875
32.1882189,-117.4755859375,-17.2021484375,15.4833984375
32.2240535,-116.5478515625,-17.6904296875,15.4345703125
32.2508905,-116.1572265625,-17.4462890625,15.3369140625
32.2826843,-115.7666015625,-18.1298828125,12.4072265625
32.3115137,-116.2548828125,-18.3251953125,8.5498046875
32.3408755,-117.0849609375,-19.5458984375,3.2763671875
32.3765611,-116.5478515625,-19.8876953125,-2.6318359375
32.402329,-116.8408203125,-21.2060546875,-8.4423828125
32.4303423,-116.4501953125,-22.2314453125,-13.1298828125
32.4778859,-116.9873046875,-22.7685546875,-17.6708984375
32.4929809,-117.6220703125,-24.4287109375,-21.2353515625
32.5212915,-118.0615234375,-25.4052734375,-25.4833984375
32.5547779,-119.1357421875,-26.7724609375,-29.0966796875
32.5822422,-120.1611328125,-27.7490234375,-32.4658203125
32.6323395,-120.5029296875,-29.2138671875,-36.7138671875
32.6426962,-120.9912109375,-29.3115234375,-40.9130859375
32.6725785,-121.3330078125,-29.1162109375,-42.8173828125
32.7041393,-122.0166015625,-26.4794921875,-29.9267578125
32.7352948,-122.6025390625,-25.9423828125,-5.3173828125
32.763314,-122.7978515625,-24.2822265625,19.6826171875
32.7962934,-123.7255859375,-22.2802734375,32.3779296875
32.8234963,-123.9697265625,-21.4013671875,34.7705078125
32.8578594,-124.8486328125,-20.1318359375,32.8173828125
32.8860099,-125.2880859375,-19.5947265625,30.1806640625
32.9135969,-123.4814453125,-19.3505859375,24.5654296875
32.9463738,-119.8193359375,-18.7646484375,20.4150390625
32.9768891,-117.7685546875,-18.9111328125,18.7060546875
33.0043514,-116.5478515625,-19.0576171875,17.9248046875
33.0512244,-116.1572265625,-19.3017578125,17.7294921875
33.0659466,-115.7177734375,-19.6435546875,15.2392578125
33.0948831,-115.0341796875,-19.7900390625,11.5283203125
33.1268686,-116.3037109375,-20.6689453125,6.7431640625
33.1548429,-116.3037109375,-21.9873046875,0.8349609375
33.1922481,-116.8896484375,-22.3291015625,-5.1708984375
33.2176386,-116.7431640625,-22.8662109375,-10.9326171875
33.2473853,-116.9384765625,-24.2822265625,-15.4248046875
33.2780346,-117.2314453125,-25.2587890625,-19.8681640625
33.3072783,-117.8173828125,-26.2353515625,-22.7978515625
33.3360091,-118.2568359375,-27.3095703125,-26.2646484375
33.3707097,-119.4287109375,-29.1162109375,-30.2197265625
33.3983813,-119.7216796875,-29.8486328125,-34.2724609375
33.4258773,-120.7470703125,-30.3857421875,-39.1552734375
33.4588058,-121.0888671875,-28.7255859375,-36.0302734375
33.4867407,-121.8701171875,-26.6748046875,-17.1337890625
33.5231652,-121.7724609375,-24.6728515625,10.9912109375
33.5486468,-122.9443359375,-22.9150390625,32.1337890625
33.5774573,-123.3349609375,-21.1083984375,40.1904296875
33.6052874,-123.8232421875,-19.4482421875,40.9228515625
33.6437369,-124.5068359375,-18.9111328125,40.0439453125
33.6697707,-124.3115234375,-18.4228515625,37.2607421875
33.700103,-122.0166015625,-17.4951171875,32.0361328125
33.7303557,-119.2333984375,-16.8115234375,27.3486328125
33.7570709,-116.8408203125,-17.0068359375,26.5673828125
33.7921739,-115.8154296875,-17.2021484375,25.6884765625
33.8194014,-115.5712890625,-17.2998046875,25.2490234375
33.8494957,-115.3271484375,-17.4951171875,21.9775390625
33.8805856,-115.3759765625,-18.3740234375,17.5341796875
33.9096684,-115.6689453125,-18.1787109375,11.6748046875
33.9385432,-115.7177734375,-18.9599609375,5.2783203125
33.9709601,-115.5224609375,-19.9853515625,-0.8251953125
34.0010875,-115.9130859375,-21.4990234375,-6.1962890625
34.028094,-115.8642578125,-22.3291015625,-11.8115234375
34.0629175,-116.5966796875,-22.9150390625,-14.6923828125
34.0896376,-117.2802734375,-24.2333984375,-18.5498046875
34.1223002,-117.7685546875,-25.6494140625,-22.8466796875
34.1502593,-118.5498046875,-26.6259765625,-26.5087890625
34.1832874,-119.1845703125,-28.8720703125,-29.9267578125
34.2294533,-120.3076171875,-29.2626953125,-34.1259765625
34.2507217,-120.7958984375,-28.8720703125,-39.0087890625
34.2736387,-120.7470703125,-27.3583984375,-34.9560546875
34.3029302,-121.7236328125,-24.6240234375,-12.2021484375
34.3330507,-121.7724609375,-23.1591796875,17.0947265625
34.3630358,-122.6025390625,-20.9130859375,36.8212890625
34.3935014,-123.0419921875,-19.3505859375,43.9501953125
34.4208063,-123.9697265625,-18.2275390625,44.9755859375
34.455239,-124.4580078125,-16.6650390625,44.3896484375
34.4833027,-124.4580078125,-15.5419921875,42.4365234375
34.5121295,-121.8212890625,-15.2490234375,37.4560546875
34.5637716,-118.7939453125,-14.7607421875,33.5986328125
34.5835276,-116.3525390625,-14.6630859375,31.4501953125
34.6229908,-115.4736328125,-14.5654296875,30.5712890625
34.6428219,-114.7412109375,-14.4189453125,28.4228515625
34.6632748,-114.2529296875,-15.1513671875,25.4443359375
34.6949784,-114.2529296875,-15.4443359375,20.4150390625
34.7428521,-114.9365234375,-16.5673828125,14.8486328125
34.7643201,-114.6923828125,-16.9091796875,8.5498046875
34.8148113,-115.4248046875,-17.9345703125,2.2509765625
34.8158532,-114.9365234375,-19.5947265625,-3.3642578125
34.8458114,-115.2783203125,-20.2783203125,-8.4423828125
34.8753062,-116.0107421875,-21.1083984375,-12.6904296875
34.9054503,-116.5478515625,-22.5244140625,-17.0361328125
34.9337881,-117.5244140625,-23.9892578125,-20.5517578125
34.9836204,-118.6474609375,-24.9169921875,-24.1650390625
35.0037027,-118.8427734375,-26.3818359375,-28.3154296875
35.027172,-119.5751953125,-27.6025390625,-33.4423828125
35.0575164,-120.3564453125,-28.9208984375,-38.2275390625
35.0862483,-120.7470703125,-28.0908203125,-42.8173828125
35.1347291,-121.2353515625,-26.5771484375,-38.2275390625
35.154851,-121.6748046875,-24.0380859375,-16.1083984375
35.1749471,-121.9677734375,-22.6220703125,13.6767578125
35.2081372,-123.1396484375,-20.1806640625,33.5498046875
35.2374836,-123.6279296875,-19.4970703125,40.6298828125
35.2659825,-123.8232421875,-17.1533203125,40.9228515625
35.2978871,-124.7998046875,-15.9326171875,40.2880859375
35.326319,-124.5556640625,-15.6396484375,37.8955078125
35.3559177,-123.3349609375,-14.8583984375,32.6220703125
35.388627,-119.4775390625,-14.6142578125,29.2041015625
35.4165901,-117.6708984375,-14.2724609375,28.0810546875
35.4492535,-116.1083984375,-14.4677734375,27.2998046875
35.4794658,-115.3759765625,-15.2001953125,26.0302734375
35.50636,-115.0341796875,-15.4931640625,22.7099609375
35.5395375,-114.7900390625,-15.8349609375,18.3154296875
35.5689821,-115.2783203125,-15.7373046875,12.6025390625
35.6013198,-115.8642578125,-17.6904296875,6.7431640625
35.6301478,-115.8154296875,-16.9580078125,0.5908203125
35.6593853,-115.4736328125,-19.4970703125,-5.0244140625
35.6910522,-116.1572265625,-20.0830078125,-9.7607421875
35.7374348,-116.3037109375,-21.0595703125,-13.7646484375
35.7575675,-116.8896484375,-22.1826171875,-17.3291015625
35.7823124,-117.8173828125,-23.4521484375,-20.6494140625
35.8095069,-118.1591796875,-25.0634765625,-23.8232421875
35.8397929,-119.4775390625,-26.3818359375,-28.4130859375
35.9008311,-119.6240234375,-27.2607421875,-32.1728515625
35.9019827,-120.3564453125,-27.6513671875,-35.9326171875
35.9323611,-121.1865234375,-26.0888671875,-35.3466796875
35.9625945,-121.0400390625,-24.9658203125,-18.8427734375
35.9902521,-121.7724609375,-23.4033203125,6.6943359375
36.0416302,-122.7978515625,-21.8408203125,28.4716796875
36.071792,-122.9931640625,-19.9853515625,35.9912109375
36.0807839,-123.7744140625,-18.7646484375,36.9677734375
36.1125422,-124.1650390625,-18.3251953125,34.9169921875
36.1420768,-124.3115234375,-18.2275390625,30.8642578125
36.1820486,-123.8232421875,-18.4228515625,25.7861328125
36.203829,-120.9423828125,-17.4951171875,21.3916015625
36.231985,-118.2568359375,-17.6416015625,21.1474609375
36.2609164,-116.3525390625,-18.0322265625,20.7080078125
36.2939087,-115.5224609375,-18.1787109375,19.2919921875
36.3288424,-115.4736328125,-18.7646484375,16.6064453125
36.3497185,-114.9853515625,-18.9599609375,12.1630859375
36.3834613,-115.3271484375,-20.2294921875,6.5966796875
36.4123123,-115.6689453125,-20.6201171875,0.6396484375
36.4485105,-115.9619140625,-21.9384765625,-3.7548828125
36.4743554,-115.7177734375,-22.3779296875,-9.2724609375
36.5101571,-115.4736328125,-23.8916015625,-13.8623046875
36.5362134,-115.8642578125,-25.5029296875,-17.9638671875
36.5646127,-116.6455078125,-25.6494140625,-21.1865234375
36.591649,-117.7197265625,-27.2119140625,-25.2880859375
36.6319273,-117.9150390625,-28.8720703125,-28.9990234375
36.6535448,-118.0615234375,-29.4091796875,-33.2470703125
36.6905539,-118.8916015625,-28.9697265625,-35.9814453125
36.7155052,-119.8193359375,-27.2607421875,-29.0478515625
36.745192,-119.7705078125,-25.5029296875,-7.3193359375
36.7725738,-120.1123046875,-23.0126953125,19.9755859375
36.8094978,-120.9912109375,-21.6943359375,35.4052734375
36.8350552,-121.5771484375,-19.7412109375,39.5068359375
36.8665972,-121.9189453125,-17.6904296875,39.5556640625
36.8961816,-122.2119140625,-18.2763671875,37.9931640625
36.9271118,-123.0908203125,-17.0556640625,33.9404296875
36.9577011,-120.7470703125,-16.7626953125,29.1552734375
36.9925213,-117.2314453125,-16.0302734375,26.3232421875
37.0196997,-115.5712890625,-16.5185546875,26.2255859375
37.0479518,-113.8623046875,-16.7626953125,25.9326171875
37.0764114,-113.6669921875,-16.2744140625,23.7841796875
37.1093137,-113.0322265625,-16.9091796875,20.4150390625
37.1371007,-112.6416015625,-17.2021484375,15.5322265625
37.1733223,-113.4228515625,-18.1787109375,10.0146484375
37.1972752,-113.7158203125,-19.2041015625,5.2783203125
37.2274469,-112.9345703125,-20.3759765625,-1.2158203125
37.2546974,-113.2763671875,-21.0107421875,-5.8056640625
37.290095,-113.6669921875,-22.5732421875,-10.2978515625
37.3178691,-114.4482421875,-23.4033203125,-14.1064453125
37.3497442,-114.7900390625,-24.4775390625,-17.5244140625
37.3875293,-114.9853515625,-26.1865234375,-21.5283203125
37.4071794,-115.9619140625,-27.2119140625,-25.5810546875
37.440091,-116.1083984375,-28.0908203125,-29.8291015625
37.4750535,-117.3779296875,-27.3583984375,-33.1494140625
37.4997746,-117.2802734375,-24.8193359375,-23.3349609375
37.5357597,-118.1591796875,-22.2314453125,1.8115234375
37.5575972,-118.5009765625,-20.5712890625,28.8134765625
37.5941113,-118.9892578125,-19.2041015625,43.4619140625
37.6209404,-119.3310546875,-17.4462890625,47.3681640625
37.6496568,-120.0634765625,-16.5185546875,48.5400390625
37.6857248,-120.3076171875,-16.1767578125,47.1728515625
37.7110103,-121.3818359375,-14.9072265625,44.2431640625
37.7475985,-118.6962890625,-13.9306640625,39.3115234375
37.7735204,-114.5947265625,-14.0283203125,36.8212890625
37.8018329,-112.5439453125,-13.1494140625,35.2099609375
37.8295431,-110.7373046875,-13.4912109375,34.9658203125
37.8629379,-110.2490234375,-14.2236328125,32.7685546875
37.8899463,-110.2490234375,-14.7119140625,29.5947265625
37.9276416,-109.9072265625,-15.6396484375,23.6376953125
37.9530602,-109.9072265625,-16.3720703125,18.1201171875
37.9801516,-110.5419921875,-17.3486328125,12.7978515625
38.0161216,-110.1513671875,-18.2275390625,6.8408203125
38.0431397,-110.2978515625,-19.3017578125,1.0791015625
38.072172,-110.7861328125,-20.4736328125,-3.5107421875
38.1098684,-110.9814453125,-21.7431640625,-7.2705078125
38.1326772,-111.8115234375,-23.1591796875,-11.2744140625
38.169331,-112.4951171875,-24.1357421875,-14.8876953125
38.1930555,-113.0810546875,-25.5029296875,-18.4033203125
38.239912,-113.8134765625,-26.8701171875,-23.5302734375
38.2552251,-114.2529296875,-29.0185546875,-28.1201171875
38.2851034,-115.1806640625,-29.8486328125,-32.9052734375
38.3137446,-115.7177734375,-29.7509765625,-36.4208984375
38.3459623,-116.4501953125,-26.9677734375,-30.6103515625
38.3741144,-116.5966796875,-24.5263671875,-6.8310546875
38.4034887,-116.7919921875,-23.0126953125,23.9794921875
38.4350932,-117.5244140625,-21.3037109375,41.8017578125
38.4653114,-118.1591796875,-19.2041015625,48.6376953125
38.4931348,-119.0380859375,-17.5927734375,50.1513671875
38.5297869,-118.8427734375,-16.2744140625,50.9326171875
38.5548334,-119.8193359375,-15.0048828125,49.0283203125
38.5849146,-118.8427734375,-14.2724609375,45.5126953125
38.6208323,-114.4482421875,-14.7119140625,41.2158203125
38.6437088,-110.5908203125,-14.1748046875,39.6533203125
38.6819759,-109.7119140625,-14.5166015625,38.6767578125
38.7061935,-107.8564453125,-14.8583984375,36.8701171875
38.7356288,-106.5869140625,-15.2001953125,34.0380859375
38.7723213,-106.3916015625,-15.7861328125,29.4970703125
38.79534,-106.1474609375,-16.6162109375,23.0029296875
38.824103,-107.1240234375,-16.8115234375,17.7783203125
38.8623841,-107.3681640625,-18.5693359375,11.6748046875
38.8839675,-107.5634765625,-19.5947265625,6.1083984375
38.9208702,-107.7099609375,-20.7177734375,1.6650390625
38.9478897,-108.3935546875,-21.7919921875,-3.1689453125
38.9770365,-108.0517578125,-23.3544921875,-6.7822265625
39.0048892,-109.5654296875,-23.5009765625,-10.6884765625
39.0430202,-110.7373046875,-25.3564453125,-14.5458984375
39.0677571,-111.3232421875,-26.5283203125,-18.9404296875
39.1154739,-112.5927734375,-28.0908203125,-22.9931640625
39.1290897,-112.8857421875,-30.0927734375,-28.0712890625
39.1582897,-113.4716796875,-30.7763671875,-32.3193359375
39.1893916,-114.3017578125,-29.4091796875,-34.5166015625
39.219015,-114.4970703125,-27.3095703125,-21.9189453125
39.2478637,-115.3759765625,-25.1123046875,4.6923828125
39.2853079,-115.7177734375,-23.2080078125,31.5478515625
39.3092495,-116.7431640625,-21.9384765625,43.9013671875
39.3367796,-117.1826171875,-20.5224609375,47.0263671875
39.3693762,-118.1103515625,-19.3017578125,46.1474609375
39.3990401,-118.5009765625,-18.9599609375,44.6826171875
39.4349529,-118.4033203125,-18.6181640625,39.9951171875
39.4596534,-117.3779296875,-18.5205078125,35.8935546875
39.4879766,-113.5693359375,-18.6181640625,34.0869140625
39.5258847,-109.9072265625,-18.6181640625,33.1591796875
39.5505137,-108.4912109375,-19.1552734375,33.5498046875
39.5807666,-107.7587890625,-18.5205078125,31.3525390625
39.6121117,-107.1240234375,-19.2529296875,28.3251953125
39.6395659,-106.9287109375,-19.6435546875,23.3447265625
39.6729175,-107.4658203125,-20.5712890625,17.9248046875
39.7010733,-108.1005859375,-22.5244140625,12.5048828125
39.7300602,-107.5634765625,-22.8662109375,7.7197265625
39.7625672,-107.7099609375,-23.5986328125,2.6904296875
39.7917964,-108.3447265625,-24.6728515625,-1.6552734375
39.8206069,-108.2470703125,-26.0888671875,-5.8056640625
39.8540799,-109.5166015625,-28.3349609375,-9.1748046875
39.8809921,-110.1025390625,-28.8720703125,-12.9345703125
39.9116762,-111.3232421875,-30.8251953125,-16.1572265625
39.9425343,-111.8115234375,-32.5341796875,-20.4541015625
39.9716023,-112.9833984375,-33.5107421875,-25.3369140625
40.0009776,-112.8369140625,-34.2919921875,-29.4873046875
40.0347326,-114.6923828125,-33.0224609375,-31.0009765625
40.0627036,-114.3994140625,-30.7763671875,-18.1103515625
40.0936021,-114.9365234375,-29.6533203125,8.4033203125
40.1235524,-115.5224609375,-28.0908203125,34.1357421875
40.1533673,-116.0595703125,-26.7724609375,44.9267578125
40.18463,-116.7431640625,-24.9169921875,46.9775390625
40.2138593,-117.0849609375,-24.1357421875,46.1474609375
40.2433494,-118.1591796875,-24.4775390625,42.6318359375
40.2765595,-118.0126953125,-23.8916015625,37.3583984375
40.3037981,-116.7919921875,-23.0615234375,33.8427734375
40.3336473,-112.5439453125,-22.8662109375,31.5478515625
40.3663198,-110.0048828125,-23.1591796875,31.5966796875
40.395117,-107.9541015625,-23.6474609375,31.1083984375
40.4226998,-107.4658203125,-24.2333984375,28.8134765625
40.455968,-107.3681640625,-24.2333984375,25.2978515625
40.4841166,-106.4404296875,-26.2353515625,20.3173828125
40.516405,-107.9052734375,-26.8212890625,13.9208984375
40.5458256,-108.3935546875,-27.2607421875,8.0615234375
40.5751665,-107.9052734375,-28.5302734375,3.0810546875
40.6070513,-108.4912109375,-30.1416015625,-1.8505859375
40.6347431,-108.1982421875,-31.0205078125,-6.5380859375
40.6660189,-108.6865234375,-32.7783203125,-10.1025390625
40.6960486,-109.4189453125,-34.5361328125,-13.6669921875
40.7252481,-110.6396484375,-35.5615234375,-18.5986328125
40.755012,-111.3232421875,-36.5380859375,-22.1142578125
40.7876681,-112.4462890625,-37.3681640625,-26.7529296875
40.8157497,-113.3251953125,-36.1474609375,-27.9736328125
40.8450598,-113.3740234375,-33.8525390625,-15.7177734375
40.8761885,-114.1064453125,-31.7041015625,10.2587890625
40.9055213,-114.5458984375,-30.5810546875,35.8935546875
40.9375283,-115.3271484375,-28.4326171875,48.1982421875
40.9797116,-116.0595703125,-27.2119140625,50.2978515625
41.0002792,-116.8896484375,-26.4794921875,50.7373046875
41.0293872,-117.1826171875,-26.0888671875,49.3212890625
41.0576383,-117.2314453125,-24.7216796875,44.0966796875
41.0898448,-116.9873046875,-25.2587890625,39.6044921875
41.1246149,-113.0810546875,-25.3564453125,37.5048828125
41.1471113,-109.9072265625,-25.0634765625,36.4306640625
41.1796121,-108.1005859375,-25.3564453125,35.5517578125
41.2097245,-106.8798828125,-25.6494140625,33.5986328125
41.2383822,-106.2451171875,-26.6748046875,29.1064453125
41.2701706,-106.0009765625,-27.2607421875,24.4189453125
41.2986053,-106.5380859375,-28.1396484375,17.7783203125
41.3275039,-107.8076171875,-28.7255859375,12.4560546875
41.3607105,-107.6123046875,-30.0927734375,6.1572265625
41.4004807,-107.8564453125,-31.3134765625,0.7861328125
41.4186832,-107.9541015625,-33.1689453125,-3.9501953125
41.4498283,-108.3447265625,-34.0966796875,-8.2958984375
41.4987222,-109.4189453125,-35.6103515625,-12.5439453125
41.5171552,-109.8583984375,-36.3916015625,-16.2548828125
41.5484017,-111.4208984375,-37.5634765625,-20.5517578125
41.5693842,-111.8115234375,-40.1513671875,-25.2880859375
41.6062308,-112.8369140625,-40.4443359375,-29.9755859375
41.6312192,-112.9833984375,-38.9794921875,-33.6376953125
41.6694803,-114.0576171875,-37.4658203125,-23.1396484375
41.6924357,-114.9365234375,-35.2197265625,3.1787109375
41.733059,-114.8876953125,-33.4130859375,31.3525390625
41.750131,-115.4248046875,-32.2900390625,46.2939453125
41.7853002,-116.1083984375,-30.2880859375,50.8837890625
41.8122256,-116.8896484375,-29.4091796875,50.6884765625
41.8495837,-117.4755859375,-28.5791015625,49.7607421875
41.8735459,-118.2568359375,-28.2861328125,46.5380859375
41.9117504,-118.4033203125,-27.5048828125,41.0693359375
41.934694,-115.2783203125,-27.6025390625,37.9443359375
41.9619908,-111.2744140625,-27.2119140625,36.9189453125
41.9999749,-109.5166015625,-27.0166015625,35.3564453125
42.0236766,-107.3681640625,-27.2607421875,32.4267578125
42.060313,-107.1240234375,-27.7490234375,28.7646484375
42.0807712,-106.4892578125,-28.4814453125,23.3935546875
42.1166198,-106.1962890625,-30.0927734375,16.4111328125
42.142137,-107.5146484375,-30.9716796875,10.0146484375
42.1773813,-107.9052734375,-32.5830078125,3.3251953125
42.2044697,-107.8076171875,-33.2177734375,-2.0458984375
42.2432417,-108.7353515625,-34.5361328125,-8.1494140625
42.2622786,-108.4912109375,-36.1962890625,-12.3974609375
42.299262,-108.4912109375,-37.2216796875,-17.2314453125
42.3208609,-110.0048828125,-38.3935546875,-21.4306640625
42.3593194,-111.1279296875,-40.2001953125,-25.6298828125
42.3835056,-111.9091796875,-42.0068359375,-29.5361328125
42.4195849,-113.0810546875,-43.5693359375,-33.8818359375
42.4457042,-113.0810546875,-45.0830078125,-39.8388671875
42.4827063,-114.1552734375,-45.9619140625,-44.1845703125
42.5054901,-114.4970703125,-43.6181640625,-46.3818359375
42.5440963,-115.0830078125,-41.8115234375,-31.0009765625
42.5657271,-116.1572265625,-39.6142578125,-3.0712890625
42.602229,-116.3525390625,-38.1494140625,25.0537109375
42.6277951,-116.8408203125,-36.4892578125,37.4072265625
42.6641002,-117.4267578125,-34.4873046875,40.2392578125
42.6872593,-117.9150390625,-32.9248046875,40.0927734375
42.7311062,-119.0869140625,-32.8271484375,39.7998046875
42.751044,-119.3310546875,-31.4599609375,35.7958984375
42.7775647,-118.8916015625,-31.7041015625,30.6689453125
42.8140481,-116.3525390625,-31.0205078125,27.5927734375
42.8386843,-112.2021484375,-30.9228515625,26.0302734375
42.876055,-109.8095703125,-30.9716796875,24.9560546875
42.8951883,-109.4677734375,-31.4111328125,22.2216796875
42.9322362,-108.0517578125,-32.3876953125,18.3154296875
42.9574554,-107.2705078125,-32.3388671875,12.6025390625
42.9964577,-106.7333984375,-32.8759765625,5.8642578125
43.0200578,-107.9541015625,-34.0478515625,-0.7275390625
43.0479952,-108.5888671875,-34.5361328125,-6.1474609375
43.0841025,-108.3447265625,-36.3916015625,-12.1533203125
43.1087389,-108.7353515625,-38.0517578125,-17.1826171875
43.1440262,-109.2724609375,-38.6376953125,-21.8701171875
43.165744,-108.9306640625,-40.1513671875,-26.0693359375
43.2020182,-110.8837890625,-40.9814453125,-30.1708984375
43.226714,-110.9326171875,-42.2998046875,-34.4189453125
43.2639152,-111.8603515625,-44.5458984375,-38.2275390625
43.2898323,-112.6904296875,-46.3525390625,-42.3779296875
43.3275742,-113.2275390625,-47.4267578125,-47.4560546875
43.3491149,-114.4970703125,-48.4033203125,-52.4365234375
43.3857388,-114.2041015625,-48.9892578125,-57.1728515625
43.4127858,-115.8642578125,-46.9873046875,-57.1728515625
43.4417136,-116.2060546875,-45.3759765625,-39.2529296875
43.4699128,-116.7919921875,-42.9833984375,-11.1767578125
43.5088022,-117.3779296875,-42.0068359375,12.7001953125
43.5310443,-117.4267578125,-40.8349609375,22.8564453125
43.5676321,-118.5498046875,-39.1748046875,24.5654296875
43.5900842,-119.3798828125,-38.9794921875,21.9287109375
43.6293162,-120.4541015625,-38.1005859375,19.5361328125
43.6496023,-120.7958984375,-38.3447265625,14.4091796875
43.6890462,-120.8447265625,-37.0751953125,10.0634765625
43.7109341,-117.2314453125,-36.8798828125,8.4033203125
43.7462256,-113.8134765625,-36.8310546875,8.2080078125
43.7740624,-111.2744140625,-37.2705078125,6.6943359375
43.8105256,-110.2001953125,-37.7587890625,4.6435546875
43.8337434,-110.1025390625,-38.6865234375,0.3955078125
43.8697482,-109.3701171875,-39.5654296875,-4.5849609375
43.891835,-110.0048828125,-40.0537109375,-9.5166015625
43.92491,-110.5419921875,-40.3466796875,-16.0595703125
43.9606302,-110.8837890625,-42.2509765625,-20.4541015625
43.9807901,-110.9814453125,-43.2763671875,-25.5810546875
44.0195799,-110.4443359375,-44.7900390625,-30.1220703125
44.0423698,-111.2744140625,-45.2783203125,-34.0283203125
44.0794825,-111.6162109375,-47.0361328125,-37.1533203125
44.1056858,-112.7880859375,-48.3544921875,-40.3759765625
44.1332689,-113.1787109375,-50.3564453125,-44.2822265625
44.1692362,-113.5693359375,-51.7724609375,-48.5791015625
44.1950153,-114.9365234375,-52.9443359375,-53.0224609375
44.2326452,-115.3759765625,-52.6513671875,-56.9775390625
44.255784,-116.0107421875,-49.9169921875,-51.2646484375
44.2913716,-116.4013671875,-48.2080078125,-29.3408203125
44.3158066,-116.6455078125,-46.1572265625,-2.4853515625
44.3520824,-118.2080078125,-44.7412109375,14.7998046875
44.3748661,-118.1591796875,-43.6181640625,20.5615234375
44.4123637,-118.7451171875,-42.3974609375,19.1455078125
44.4367451,-119.2333984375,-42.5439453125,16.3623046875
44.4826637,-120.4541015625,-42.0556640625,11.4306640625
44.4937632,-120.3076171875,-41.4697265625,5.8154296875
44.530681,-119.4287109375,-41.4208984375,1.8115234375
44.554472,-116.4990234375,-41.6162109375,0.7861328125
44.593882,-113.3251953125,-41.6650390625,0.5908203125
44.616818,-111.1767578125,-41.0791015625,-0.2880859375
44.6452061,-110.7861328125,-42.2021484375,-4.1455078125
44.6814864,-110.2001953125,-42.2998046875,-7.7587890625
44.7071435,-110.3955078125,-43.3251953125,-13.6181640625
44.7359958,-110.4931640625,-43.5205078125,-19.1357421875
44.7723317,-111.5185546875,-45.1318359375,-24.9951171875
44.7970273,-111.3720703125,-46.5478515625,-30.6103515625
44.8260597,-111.6162109375,-47.4755859375,-35.2978515625
44.8618051,-111.5185546875,-48.4521484375,-38.9599609375
44.8863417,-112.2509765625,-49.0380859375,-42.3291015625
44.9156332,-112.5439453125,-51.1376953125,-46.2841796875
44.94977,-113.0810546875,-52.1630859375,-49.1162109375
44.9772274,-114.5458984375,-53.7744140625,-53.9990234375
45.0052179,-114.3017578125,-53.5302734375,-57.7587890625
45.0396251,-114.7900390625,-50.5517578125,-51.8994140625
45.068494,-115.9619140625,-48.1591796875,-30.9033203125
45.099418,-116.2548828125,-46.6455078125,-2.9736328125
45.1302358,-116.7919921875,-45.7177734375,15.7763671875
45.1586331,-117.8173828125,-43.8623046875,22.0751953125
45.189898,-118.6474609375,-42.7392578125,22.1240234375
45.2184787,-119.3310546875,-42.0556640625,19.7802734375
45.2515976,-119.6728515625,-42.0068359375,15.0927734375
45.2809676,-120.3076171875,-40.5908203125,9.8193359375
45.3083455,-120.1123046875,-40.2001953125,5.4736328125
45.3443651,-116.7919921875,-40.5908203125,4.2041015625
45.3712863,-112.3486328125,-40.6396484375,4.0087890625
45.399001,-110.6884765625,-40.2978515625,3.1298828125
45.4283799,-109.3701171875,-40.9326171875,-0.1416015625
45.460329,-109.3212890625,-40.7373046875,-4.6337890625
45.4914357,-109.5166015625,-42.2998046875,-10.2001953125
45.5232095,-109.7607421875,-42.7880859375,-16.2548828125
45.5521313,-109.6142578125,-43.5205078125,-22.2607421875
45.5836954,-110.1513671875,-44.5458984375,-27.8271484375
45.6130949,-109.7607421875,-45.4248046875,-32.8076171875
45.6411866,-110.0537109375,-46.8408203125,-36.7138671875
45.6754205,-110.4443359375,-47.9638671875,-40.3759765625
45.703654,-111.1279296875,-49.7705078125,-43.4521484375
45.7322036,-111.4697265625,-50.2587890625,-47.2607421875
45.7641821,-112.7880859375,-51.8212890625,-50.5322265625
45.7924917,-113.9599609375,-52.2607421875,-55.3173828125
45.8203267,-114.0576171875,-50.6494140625,-58.3935546875
45.8556635,-115.1318359375,-48.3544921875,-45.2587890625
45.8827248,-116.0107421875,-46.3525390625,-19.0869140625
45.9112293,-115.6201171875,-44.4482421875,7.5244140625
45.9451363,-116.2548828125,-42.5927734375,21.3916015625
45.9740959,-117.3291015625,-41.6162109375,24.9072265625
46.0055019,-116.7919921875,-40.2490234375,23.3447265625
46.0342179,-118.4521484375,-39.5654296875,21.2939453125
46.0645311,-119.4287109375,-39.2724609375,16.5087890625
46.0970331,-119.5263671875,-38.9306640625,11.0400390625
46.1284034,-119.0380859375,-38.5400390625,8.5498046875
46.163603,-114.8876953125,-38.4423828125,7.5732421875
46.1882887,-110.9326171875,-38.0029296875,6.5966796875
46.2168378,-109.5654296875,-38.3447265625,4.3505859375
46.2444467,-109.1259765625,-38.6865234375,1.1279296875
46.2766715,-107.8564453125,-40.1025390625,-4.7314453125
46.3169036,-107.5634765625,-40.3955078125,-10.3955078125
46.3332907,-108.1005859375,-41.4697265625,-16.8896484375
46.3667963,-109.2236328125,-42.5927734375,-22.4560546875
46.4076143,-108.8330078125,-43.8623046875,-26.8994140625
46.4269436,-108.9306640625,-44.8388671875,-32.1240234375
46.4644584,-109.4189453125,-45.9619140625,-36.2255859375
46.4857483,-109.4677734375,-47.0849609375,-40.0830078125
46.5267506,-110.2978515625,-48.4033203125,-43.0615234375
46.5457598,-110.9814453125,-49.2333984375,-46.3330078125
46.5859799,-111.8115234375,-51.4794921875,-50.5322265625
46.605857,-112.7392578125,-52.4560546875,-55.0732421875
46.6468587,-113.6181640625,-53.2373046875,-59.9560546875
46.6683664,-113.9599609375,-51.1376953125,-62.5439453125
46.7065727,-114.5458984375,-48.5009765625,-47.9931640625
46.7271513,-115.4736328125,-47.2802734375,-20.3076171875
46.7685784,-116.0107421875,-45.0830078125,6.2060546875
46.7892063,-115.9130859375,-42.7880859375,20.3173828125
46.825784,-117.3291015625,-41.4208984375,22.7587890625
46.8474642,-117.6708984375,-40.2978515625,22.2216796875
46.890035,-118.2080078125,-39.0771484375,20.0732421875
46.9067363,-119.0869140625,-38.0517578125,15.9228515625
46.9472482,-119.9169921875,-38.2958984375,10.4541015625
46.9771046,-118.8916015625,-37.4169921875,7.9638671875
47.0013968,-115.2783203125,-37.4169921875,6.3525390625
47.0412432,-111.6162109375,-38.1982421875,5.5224609375
47.0726765,-109.0283203125,-37.8564453125,4.3994140625
47.0932268,-108.4912109375,-38.6376953125,-0.3369140625
47.1188838,-108.0517578125,-38.5888671875,-5.2685546875
47.1555206,-107.6611328125,-39.9560546875,-11.1279296875
47.1795086,-107.5634765625,-40.9326171875,-16.2548828125
47.2178321,-108.6865234375,-42.1044921875,-22.4072265625
47.2388575,-108.3447265625,-42.7392578125,-27.1435546875
47.2780219,-109.0771484375,-43.2275390625,-32.7587890625
47.3006937,-108.6865234375,-44.7412109375,-36.6650390625
47.3368097,-109.3212890625,-46.7919921875,-40.3271484375
47.3593983,-110.2490234375,-47.9150390625,-44.0380859375
47.3945544,-110.6396484375,-48.7451171875,-47.1630859375
47.4210567,-111.8603515625,-50.6494140625,-51.0693359375
47.4595559,-112.5439453125,-52.1630859375,-55.6103515625
47.4798874,-113.1787109375,-53.5791015625,-59.9560546875
47.5165652,-114.5947265625,-53.1396484375,-64.3505859375
47.5426437,-115.1318359375,-50.3076171875,-62.2509765625
47.5801368,-115.2783203125,-48.2568359375,-41.7431640625
47.6029347,-116.0595703125,-47.2802734375,-14.4482421875
47.63758,-116.2548828125,-44.8876953125,6.5478515625
47.6626477,-117.2802734375,-43.7158203125,15.4833984375
47.7001753,-118.1103515625,-42.4951171875,15.3857421875
47.7216719,-118.8427734375,-42.4951171875,12.7978515625
47.7571611,-119.0380859375,-41.9580078125,7.1826171875
47.7832432,-120.2587890625,-42.2509765625,1.8603515625
47.8228999,-120.9423828125,-42.4951171875,-1.9970703125
47.8427266,-119.5751953125,-41.7138671875,-2.8271484375
47.8797145,-115.1318359375,-41.1767578125,-2.2412109375
47.9024928,-112.3974609375,-42.2509765625,-3.1689453125
47.9409045,-110.9326171875,-42.5927734375,-5.3662109375
47.9621451,-109.9560546875,-42.6904296875,-8.8330078125
48.0070543,-110.0048828125,-43.6181640625,-14.3017578125
48.0281933,-110.0537109375,-44.8876953125,-19.5751953125
48.0717834,-110.7861328125,-45.9130859375,-24.5068359375
48.1025447,-111.1767578125,-47.0849609375,-29.7802734375
48.113675,-111.5673828125,-47.7685546875,-33.9306640625
48.1501036,-111.3232421875,-49.0380859375,-37.3974609375
48.1774886,-111.8603515625,-50.8935546875,-40.4248046875
48.2125048,-112.0556640625,-50.7958984375,-43.3056640625
48.2338972,-112.2509765625,-53.2861328125,-46.9677734375
48.276265,-113.0322265625,-54.4091796875,-50.6298828125
48.3064076,-114.2529296875,-54.9951171875,-54.9267578125
48.3233417,-114.1064453125,-54.7021484375,-59.3701171875
48.3695013,-115.9130859375,-52.3583984375,-53.7548828125
48.400568,-115.5712890625,-50.5029296875,-31.9775390625
48.4199381,-116.3525390625,-49.2333984375,-7.2705078125
48.4622021,-117.2802734375,-47.5244140625,11.3818359375
48.480976,-117.0361328125,-46.1572265625,17.5830078125
48.508107,-118.0615234375,-45.4248046875,16.5087890625
48.5454724,-118.5986328125,-45.5224609375,12.9443359375
48.5651813,-119.4775390625,-45.1318359375,6.7919921875
48.6012491,-120.3076171875,-43.8134765625,1.6650390625
48.6277499,-120.7958984375,-44.1552734375,-1.5087890625
48.6652431,-119.4775390625,-44.2529296875,-2.1923828125
48.6870627,-115.7666015625,-44.2041015625,-2.5830078125
48.7258857,-112.2509765625,-44.1552734375,-3.1201171875
48.7458123,-111.4208984375,-45.6689453125,-6.5869140625
48.7832418,-110.7861328125,-45.6201171875,-10.4931640625
48.8090925,-110.2978515625,-46.1572265625,-14.7900390625
48.8453204,-110.7861328125,-47.7197265625,-20.6494140625
48.8668088,-110.8837890625,-48.2568359375,-25.8251953125
48.9036071,-111.5673828125,-49.4775390625,-31.1962890625
48.9283959,-111.1279296875,-50.4052734375,-35.5419921875
48.9668215,-111.5185546875,-52.1630859375,-38.7158203125
48.9864554,-111.6650390625,-52.7490234375,-42.0361328125
49.0268554,-111.9091796875,-53.8720703125,-45.4541015625
49.0498304,-111.8115234375,-55.7275390625,-48.6279296875
49.0887466,-113.4228515625,-55.3369140625,-53.5595703125
49.1086923,-114.1064453125,-53.7744140625,-53.7060546875
49.1440251,-115.0830078125,-51.1376953125,-38.7158203125
49.1728996,-115.5712890625,-49.0380859375,-12.5927734375
49.2096495,-116.3037109375,-48.1591796875,10.3076171875
49.2310812,-116.6943359375,-45.4248046875,22.8564453125
49.2702119,-116.9384765625,-44.3994140625,24.3701171875
49.2915822,-117.5732421875,-43.9111328125,22.3193359375
49.328068,-118.5498046875,-43.3740234375,19.3408203125
49.3535347,-119.1357421875,-42.9833984375,13.1884765625
49.3907774,-120.0146484375,-42.4951171875,8.9892578125
49.4125417,-119.1845703125,-42.2021484375,6.2548828125
49.4512806,-117.3779296875,-42.2998046875,5.6689453125
49.4720034,-113.4716796875,-42.2509765625,4.8388671875
49.5130302,-111.2255859375,-42.6904296875,2.8369140625
49.5343512,-110.3955078125,-43.1298828125,-0.7763671875
49.5710642,-110.8349609375,-44.1552734375,-5.7080078125
49.5949884,-109.5654296875,-44.8876953125,-12.0068359375
49.6312136,-109.9072265625,-45.5712890625,-17.0849609375
49.6516724,-110.7373046875,-46.8408203125,-22.3583984375
49.6853835,-111.2744140625,-48.0615234375,-27.9736328125
49.7120589,-111.4208984375,-49.2822265625,-31.6845703125
49.7495113,-111.1279296875,-50.8447265625,-35.4443359375
49.7754127,-111.6162109375,-52.0654296875,-39.3017578125
49.8022596,-111.6650390625,-53.4326171875,-43.2568359375
49.8384881,-112.7392578125,-54.4091796875,-47.0166015625
49.8658206,-113.3740234375,-54.9951171875,-51.6064453125
49.8934532,-114.0576171875,-53.9208984375,-54.0966796875
49.9303919,-114.7412109375,-51.9189453125,-41.7431640625
49.9532928,-115.8642578125,-48.4033203125,-16.0595703125
49.9895292,-116.2060546875,-47.6220703125,9.8193359375
50.0138776,-116.9873046875,-46.1572265625,24.1259765625
50.0501038,-117.1826171875,-43.7158203125,27.7392578125
50.0737378,-117.8662109375,-43.1787109375,26.5673828125
50.1101456,-118.6474609375,-42.2998046875,24.6142578125
50.1351987,-118.9404296875,-41.9580078125,18.9990234375
50.1730121,-119.3798828125,-42.2509765625,14.5068359375
50.1959685,-120.0634765625,-41.9580078125,11.6748046875
50.2321279,-118.7451171875,-41.9091796875,10.0634765625
50.2576473,-114.8388671875,-41.6650390625,8.5986328125
50.2870311,-112.1533203125,-42.3486328125,7.0849609375
50.3143475,-110.9326171875,-41.9091796875,2.7880859375
50.3563217,-109.9072265625,-43.4228515625,-2.8271484375
50.3754821,-109.5654296875,-43.6669921875,-8.5888671875
50.4128804,-109.3212890625,-45.5224609375,-14.1552734375
50.4378137,-110.3466796875,-45.9130859375,-19.9658203125
50.4665959,-110.2490234375,-47.7197265625,-24.9951171875
50.4990001,-110.7373046875,-49.0869140625,-29.7314453125
50.526993,-110.1513671875,-49.5263671875,-34.0771484375
50.5571266,-110.8349609375,-51.1865234375,-37.3974609375
50.5894407,-111.0791015625,-52.3095703125,-40.4736328125
50.6180966,-111.7626953125,-54.1650390625,-44.4775390625
50.6476925,-112.0556640625,-55.2880859375,-49.2138671875
50.680117,-113.5693359375,-56.4111328125,-52.8271484375
50.7075304,-114.1064453125,-55.5810546875,-57.1728515625
50.7354597,-115.0830078125,-53.3837890625,-55.2197265625
50.7697027,-115.1806640625,-51.3818359375,-34.8583984375
50.798978,-116.2060546875,-49.6728515625,-6.4404296875
50.8317102,-116.6455078125,-48.0126953125,15.5810546875
50.8596487,-117.1337890625,-46.1083984375,24.4189453125
50.8887098,-118.0615234375,-44.2529296875,25.2978515625
50.9209034,-117.9638671875,-43.8134765625,23.0029296875
50.9508993,-119.1357421875,-43.0322265625,20.4150390625
50.9794198,-120.8447265625,-42.9345703125,15.1416015625
51.0120043,-120.8447265625,-42.2021484375,10.7958984375
51.0394917,-121.0888671875,-42.2998046875,8.3056640625
51.0693662,-118.5009765625,-41.7626953125,8.2080078125
51.1020766,-114.5947265625,-42.2509765625,7.0361328125
51.1309462,-112.3974609375,-43.4228515625,4.3017578125
51.1579462,-110.6396484375,-43.3740234375,-0.4345703125
51.1915398,-109.9072265625,-44.3017578125,-4.6337890625
51.2192728,-109.5654296875,-45.1318359375,-10.9814453125
51.2526282,-109.7607421875,-46.2060546875,-16.2060546875
51.2807159,-110.3466796875,-47.4755859375,-22.0654296875
51.3270376,-110.5908203125,-48.4521484375,-26.3623046875
51.3429033,-110.6884765625,-49.6728515625,-30.5615234375
51.3708828,-110.8349609375,-50.5517578125,-34.0771484375
51.4157637,-110.7861328125,-52.6025390625,-37.2998046875
51.4327986,-111.1279296875,-53.6279296875,-40.9130859375
51.4780083,-112.3974609375,-55.4345703125,-44.4775390625
51.4902096,-112.4462890625,-56.8994140625,-48.8720703125
51.5359357,-113.6669921875,-58.0224609375,-53.3154296875
51.5528681,-114.4482421875,-57.3388671875,-56.7333984375
51.5829161,-114.8388671875,-55.4345703125,-49.5068359375
51.6133741,-115.8154296875,-53.0908203125,-27.5830078125
51.6655657,-116.2548828125,-50.7470703125,-2.8271484375
51.6847897,-116.9384765625,-50.2099609375,13.6279296875
51.7032067,-117.6220703125,-48.7451171875,18.1689453125
51.7471061,-118.5498046875,-48.3056640625,16.8994140625
51.7674592,-118.7451171875,-48.1591796875,13.5302734375
51.8067731,-119.4775390625,-47.5244140625,6.5478515625
51.8259224,-120.0634765625,-46.7919921875,1.1279296875
51.8668136,-120.6982421875,-46.9384765625,-0.7763671875
51.8827382,-120.8935546875,-47.6220703125,-0.9716796875
51.9306234,-117.7685546875,-48.1591796875,-0.8251953125
51.9463318,-115.0341796875,-48.0615234375,-2.5341796875
51.9834835,-112.3486328125,-48.7939453125,-5.7568359375
52.0051225,-111.5673828125,-49.7705078125,-9.8095703125
52.0344013,-111.6650390625,-49.2333984375,-15.1806640625
52.0761967,-111.0302734375,-51.2841796875,-19.8193359375
52.0984461,-111.9091796875,-52.4072265625,-26.0693359375
52.1326914,-111.9580078125,-53.7255859375,-30.0244140625
52.1592111,-111.6650390625,-54.4580078125,-34.2236328125
52.1978055,-112.2021484375,-55.9228515625,-37.7880859375
52.2162136,-112.2509765625,-56.5087890625,-41.1572265625
52.2544636,-112.2509765625,-58.5107421875,-44.6240234375
52.2760059,-112.6904296875,-60.2197265625,-48.1884765625
52.3162265,-113.0322265625,-59.3408203125,-52.0458984375
52.3362849,-114.0576171875,-58.9990234375,-54.8779296875
52.375405,-114.7412109375,-56.4599609375,-43.2568359375
52.3963626,-115.4736328125,-54.4091796875,-18.4521484375
52.4343592,-116.2060546875,-53.6767578125,5.4736328125
52.4558955,-116.8408203125,-51.3818359375,19.3408203125
52.496774,-117.6220703125,-49.7216796875,21.7822265625
52.5171342,-117.3779296875,-49.5751953125,20.5615234375
52.5522377,-118.0615234375,-48.7939453125,16.9970703125
52.5737542,-118.7939453125,-48.0126953125,11.6748046875
52.6164534,-119.4287109375,-47.8662109375,6.3525390625
52.635485,-119.3310546875,-47.9638671875,4.9853515625
52.6754712,-119.5751953125,-47.3291015625,3.8134765625
52.6971458,-116.9384765625,-47.3291015625,3.8134765625
52.7352408,-112.7392578125,-48.5986328125,1.4208984375
52.7579357,-111.6650390625,-48.6474609375,-1.4599609375
52.7955136,-110.3466796875,-49.7705078125,-6.0009765625
52.8169606,-110.1513671875,-50.2587890625,-10.8837890625
52.8536188,-109.7119140625,-51.5283203125,-16.5478515625
52.8798126,-109.8583984375,-52.7001953125,-22.2119140625
52.9150653,-110.2490234375,-52.7490234375,-26.3623046875
52.9410966,-110.2978515625,-53.9697265625,-31.0009765625
52.9782748,-110.2001953125,-56.1669921875,-34.3212890625
52.9995428,-110.2490234375,-57.0458984375,-37.5927734375
53.0390545,-110.9326171875,-57.6318359375,-41.1572265625
53.059814,-111.4208984375,-59.6337890625,-45.2099609375
53.0981326,-111.8115234375,-59.0966796875,-49.5068359375
53.122112,-112.4951171875,-57.0947265625,-47.4072265625
53.1603587,-113.3740234375,-54.7998046875,-27.8759765625
53.1811294,-114.2529296875,-52.3583984375,-1.4111328125
53.2200863,-115.1318359375,-50.1611328125,21.3427734375
53.2418483,-115.9130859375,-48.9404296875,29.8388671875
53.2786053,-116.4013671875,-47.3779296875,30.7666015625
53.2991942,-116.7431640625,-47.0361328125,30.0341796875
53.3358995,-117.4755859375,-45.7666015625,25.8837890625
53.3625732,-117.7685546875,-45.4248046875,20.9033203125
53.3977805,-118.5009765625,-44.8388671875,17.1923828125
53.424488,-118.9404296875,-44.3505859375,15.5322265625
53.4602678,-117.3779296875,-45.1806640625,14.3115234375
53.4824955,-114.0087890625,-45.2294921875,13.7255859375
53.5220207,-110.6884765625,-45.7177734375,11.0888671875
53.5426279,-108.4912109375,-46.1572265625,6.4990234375
53.5838673,-108.1005859375,-46.6943359375,1.4697265625
53.6032171,-107.2705078125,-48.2080078125,-4.2431640625
53.6418095,-106.7333984375,-48.8916015625,-8.8330078125
53.6634131,-107.4169921875,-50.0634765625,-14.3017578125
53.6993703,-108.2470703125,-50.8447265625,-19.3798828125
53.7221069,-108.3935546875,-52.3095703125,-23.7744140625
53.7599454,-107.6123046875,-53.2861328125,-27.0947265625
53.7836903,-107.9541015625,-54.6533203125,-30.2685546875
53.8235728,-108.7353515625,-56.3623046875,-34.1748046875
53.8451311,-108.5400390625,-56.7041015625,-38.1298828125
53.8811429,-110.3466796875,-58.0224609375,-42.9638671875
53.9019625,-111.0791015625,-56.9970703125,-46.3330078125
53.9386909,-111.3232421875,-53.7744140625,-40.6689453125
53.9647857,-112.6416015625,-52.3095703125,-16.4990234375
54.0027282,-112.6416015625,-49.2333984375,12.0166015625
54.0244135,-113.4228515625,-47.3291015625,31.5966796875
54.0649705,-114.0087890625,-45.9619140625,38.2373046875
54.0866891,-114.2529296875,-44.1552734375,38.5791015625
54.1244145,-114.7412109375,-42.7880859375,37.4560546875
54.1447851,-115.6689453125,-42.5439453125,34.6728515625
54.1804163,-116.1572265625,-41.6650390625,29.8876953125
54.2081615,-116.2548828125,-41.0791015625,25.3466796875
54.2444084,-117.3291015625,-41.2255859375,23.7841796875
54.2669887,-116.3525390625,-40.9326171875,23.1494140625
54.3060699,-111.4208984375,-40.7373046875,21.8310546875
54.3264088,-108.1005859375,-41.6162109375,18.7060546875
54.3644912,-106.3427734375,-42.2021484375,13.7744140625
54.3837402,-105.7080078125,-42.4951171875,8.7451171875
54.419712,-104.9755859375,-43.0322265625,2.2021484375
54.4482297,-104.2919921875,-45.2783203125,-3.0224609375
54.4842793,-104.9267578125,-46.1572265625,-8.0029296875
54.5089777,-105.9033203125,-46.7919921875,-12.3486328125
54.558293,-105.8544921875,-48.3056640625,-15.8642578125
54.5784928,-105.6591796875,-49.1845703125,-19.9658203125
54.5999256,-106.0498046875,-50.4541015625,-23.1396484375
54.6356545,-106.4404296875,-52.7490234375,-26.4599609375
54.6605966,-107.1240234375,-53.5302734375,-31.0498046875
54.695757,-107.6611328125,-55.0439453125,-35.2490234375
54.7166156,-108.4423828125,-55.3369140625,-39.5458984375
54.7534177,-109.2724609375,-52.7978515625,-40.4248046875
54.7791115,-110.0048828125,-50.2099609375,-25.9716796875
54.8157392,-111.2744140625,-47.8173828125,0.3955078125
54.8418612,-111.9091796875,-46.6943359375,25.8837890625
54.8791171,-112.1533203125,-44.7900390625,37.6025390625
54.9043,-112.7880859375,-42.9833984375,39.4580078125
54.9406935,-113.2763671875,-42.4951171875,37.2607421875
54.9595505,-114.2529296875,-41.9091796875,34.6240234375
54.9972293,-114.7412109375,-41.5185546875,29.6923828125
55.0225666,-114.8388671875,-42.0068359375,25.6884765625
55.0587542,-116.4013671875,-40.6396484375,23.7353515625
55.0827046,-116.5478515625,-40.6884765625,23.0029296875
55.111299,-113.6669921875,-40.4931640625,21.9287109375
55.1465171,-108.9794921875,-41.8603515625,20.0732421875
55.1736862,-106.7822265625,-41.8115234375,16.6552734375
55.2011439,-105.3173828125,-43.3251953125,11.6748046875
55.2371629,-105.7568359375,-43.1787109375,6.2548828125
55.2627993,-105.2197265625,-44.2529296875,1.4208984375
55.3001729,-104.2919921875,-46.3525390625,-3.8037109375
55.3258744,-105.6591796875,-47.2802734375,-7.7587890625
55.3535425,-105.6103515625,-48.5986328125,-11.3720703125
55.3824204,-105.4638671875,-49.5263671875,-15.3271484375
55.415509,-105.7568359375,-51.5283203125,-17.9638671875
55.4432164,-106.0986328125,-52.7001953125,-20.6494140625
55.4709389,-106.8798828125,-53.8232421875,-24.9951171875
55.5128332,-107.9052734375,-54.3115234375,-29.4873046875
55.5314584,-108.2958984375,-53.1396484375,-32.2216796875
55.5676191,-109.5654296875,-50.1611328125,-20.7958984375
55.5965411,-109.9560546875,-48.6962890625,2.9833984375
55.6240654,-110.5908203125,-47.3291015625,28.0322265625
55.6516782,-111.3232421875,-45.3271484375,40.4833984375
55.6970008,-111.9091796875,-43.7158203125,42.8759765625
55.7271866,-112.4951171875,-42.8857421875,42.4853515625
55.7460684,-112.3486328125,-42.3486328125,39.2138671875
55.7761063,-112.5927734375,-43.0810546875,33.1591796875
55.8085751,-113.7646484375,-42.2509765625,28.9111328125
55.8360001,-114.5458984375,-42.7880859375,26.6162109375
55.8659503,-115.0341796875,-41.8115234375,26.4697265625
55.8929756,-113.2763671875,-42.5927734375,25.3955078125
55.9302768,-109.0771484375,-43.3251953125,23.3447265625
55.9556788,-106.2939453125,-43.8623046875,19.8779296875
55.9927945,-105.0732421875,-44.5458984375,14.6533203125
56.017719,-103.7060546875,-45.8154296875,9.2822265625
56.0448315,-104.1943359375,-46.7431640625,3.7158203125
56.0728185,-104.0478515625,-48.3056640625,-1.3623046875
56.10973,-104.7314453125,-48.7939453125,-6.0986328125
56.1507184,-104.7802734375,-50.0146484375,-9.8583984375
56.1688585,-104.8779296875,-51.8701171875,-13.9111328125
56.1977447,-104.8779296875,-52.4072265625,-17.3291015625
56.2298627,-104.8779296875,-54.1162109375,-21.3330078125
56.2584982,-106.2939453125,-54.4580078125,-25.2392578125
56.287851,-106.0498046875,-52.4560546875,-27.0458984375
56.3332423,-106.9775390625,-49.8193359375,-14.5458984375
56.3495406,-108.0517578125,-47.6708984375,10.2587890625
56.376962,-108.2958984375,-45.8154296875,37.2119140625
56.4242943,-109.4677734375,-44.1064453125,49.0771484375
56.4396446,-109.8583984375,-42.6904296875,52.3486328125
56.4667567,-110.4931640625,-41.7138671875,52.1533203125
56.514337,-111.1767578125,-41.5673828125,49.4677734375
56.5271668,-111.5673828125,-40.5908203125,44.8291015625
56.5751745,-112.5927734375,-40.1513671875,39.8486328125
56.5913699,-112.8857421875,-40.2001953125,37.0654296875
56.634771,-113.4228515625,-40.5908203125,36.4794921875
56.6472502,-112.0556640625,-41.3232421875,35.5517578125
56.6920049,-108.1005859375,-41.6162109375,33.4521484375
56.7126863,-104.8779296875,-42.0068359375,29.3994140625
56.7550183,-103.0224609375,-43.6181640625,24.5166015625
56.7694845,-102.3876953125,-44.2041015625,18.7060546875
56.8147077,-101.9970703125,-45.3759765625,13.5302734375
56.834753,-101.3134765625,-46.1083984375,7.8662109375
56.8728931,-101.8505859375,-47.9150390625,3.4228515625
56.8934113,-102.8271484375,-49.1357421875,-1.3134765625
56.9349715,-102.6806640625,-49.8193359375,-5.1708984375
56.9542317,-102.9248046875,-51.5283203125,-8.2958984375
56.9923254,-102.3388671875,-52.5048828125,-12.0068359375
57.0137992,-103.3154296875,-54.5556640625,-16.7431640625
57.0409906,-103.8525390625,-54.4091796875,-20.5517578125
57.0873088,-104.8779296875,-52.4072265625,-22.7490234375
57.1031378,-105.8056640625,-50.5029296875,-8.8330078125
57.1438638,-107.1728515625,-47.1826171875,18.8037109375
57.1643011,-107.9052734375,-45.3759765625,45.7568359375
57.2063493,-108.2470703125,-42.8369140625,57.5244140625
57.224767,-108.1982421875,-41.6650390625,60.7958984375
57.2607561,-109.3212890625,-40.6396484375,60.6005859375
57.2817268,-109.8095703125,-40.4443359375,59.6240234375
57.325631,-110.2490234375,-40.0048828125,54.2529296875
57.3448608,-111.4697265625,-39.5166015625,49.6630859375
57.385446,-111.7138671875,-39.5166015625,46.5869140625
57.4069497,-111.8603515625,-39.1748046875,45.2197265625
57.4436173,-110.9814453125,-39.3212890625,43.6572265625
57.4636843,-106.9775390625,-40.4931640625,42.0947265625
57.5056408,-103.2666015625,-41.0791015625,37.6025390625
57.5280448,-101.2158203125,-42.2509765625,31.5478515625
57.5652837,-99.8486328125,-43.2763671875,25.2001953125
57.5885177,-98.7744140625,-44.3994140625,19.9267578125
57.6269624,-98.3837890625,-45.8154296875,14.1162109375
57.6493412,-99.4580078125,-47.0361328125,9.4287109375
57.6873831,-99.5556640625,-48.2568359375,3.9599609375
57.707396,-100.3857421875,-49.5751953125,0.2001953125
57.7445062,-100.5322265625,-51.1865234375,-4.7314453125
57.7663475,-100.6787109375,-52.6513671875,-7.5634765625
57.8042324,-100.8251953125,-53.9208984375,-12.0556640625
57.8268067,-101.6064453125,-56.9970703125,-15.8154296875
57.8641835,-102.5830078125,-57.3876953125,-20.3076171875
57.8844433,-103.9990234375,-56.5087890625,-24.7509765625
57.9262601,-104.7314453125,-53.9208984375,-24.1162109375
57.946594,-105.2685546875,-51.5771484375,-3.3642578125
57.9830529,-106.4404296875,-48.5986328125,27.0068359375
58.0056893,-106.9775390625,-46.3525390625,50.3466796875
58.055764,-107.5634765625,-45.4248046875,58.6474609375
