Timestamp,PPG_Forehead,PPG_Earlobe,PPG_Finger
0.00706300000000004,0.185546875,0.185546875,0.185546875
0.010821,0.185546875,0.185546875,0.185546875
0.015047,0.185546875,0.185546875,0.185546875
0.0185623000000001,0.185546875,0.185546875,0.185546875
0.0220172000000001,0.185546875,0.185546875,0.185546875
0.0272777999999998,0.185546875,0.185546875,0.185546875
0.0292208999999999,92.7099609375,85.9716796875,81.6259765625
0.0318532,-88.3837890625,-82.2021484375,63.5205078125
0.0334118999999999,-90.0439453125,-82.5439453125,74.5556640625
0.0344370999999999,-89.7998046875,-81.9091796875,82.8564453125
0.0354709,-90.7275390625,-81.6650390625,90.0341796875
0.0366529,-91.8505859375,-82.1533203125,93.7939453125
0.0378571000000001,-92.2412109375,-82.4951171875,93.9892578125
0.0393271999999998,-91.5576171875,-83.3740234375,92.6220703125
0.0403061,-88.8232421875,-82.6904296875,86.9580078125
0.0420935999999998,-86.1376953125,-84.0087890625,84.9072265625
0.0431313000000002,-83.8427734375,-83.4228515625,83.0029296875
0.0444722,-81.3525390625,-83.7646484375,79.4384765625
0.0457466000000002,-79.5947265625,-84.2041015625,77.6318359375
0.0483524000000002,-78.6181640625,-84.1552734375,74.6044921875
0.0496194000000001,-77.1533203125,-84.7900390625,71.1865234375
0.0510454999999999,-77.4462890625,-85.6689453125,68.5986328125
0.0524401000000001,-77.8857421875,-86.7431640625,64.9853515625
0.0537703,-78.0810546875,-87.1337890625,61.3720703125
0.0552334000000001,-78.8623046875,-87.7685546875,58.1005859375
0.0562075000000002,-79.4482421875,-89.1845703125,55.4150390625
0.0578120000000002,-80.8154296875,-89.3310546875,55.1708984375
0.05884,-81.7431640625,-87.8662109375,62.9833984375
0.0603004,-82.7685546875,-86.8408203125,75.5322265625
0.0615549999999998,-85.0146484375,-86.5478515625,87.7392578125
0.0627472,-85.3564453125,-85.9619140625,99.4580078125
0.0649302999999999,-87.4560546875,-85.4736328125,107.7587890625
0.0661662000000001,-89.7021484375,-85.2783203125,113.4228515625
0.0676834999999998,-91.1181640625,-84.7900390625,115.4248046875
0.0688081,-92.1923828125,-86.5478515625,113.6181640625
0.0699633,-89.6044921875,-87.5244140625,110.9326171875
0.0715661000000001,-87.0166015625,-86.4013671875,107.4169921875
0.0725479,-82.7197265625,-86.3037109375,105.1220703125
0.0747884999999999,-79.3994140625,-86.9873046875,102.3876953125
0.0758325000000002,-76.9580078125,-87.2314453125,99.2138671875
0.0774746999999998,-74.9072265625,-87.1337890625,96.5283203125
0.0784460999999999,-73.9306640625,-88.3056640625,93.1103515625
0.0799196000000002,-74.3212890625,-88.8427734375,88.9599609375
0.0812027,-74.6142578125,-89.5751953125,84.7607421875
0.0822343999999999,-74.8583984375,-89.7705078125,80.8544921875
0.0832803000000002,-75.8349609375,-90.6494140625,76.8994140625
0.0842969,-76.8115234375,-90.8935546875,72.6513671875
0.0858248000000001,-78.4228515625,-91.4794921875,68.1591796875
0.0870269000000001,-80.4736328125,-92.5537109375,68.3544921875
0.0882923,-81.8408203125,-90.5029296875,73.7744140625
0.0898175999999999,-83.0126953125,-89.9169921875,85.0537109375
0.0908004,-84.4775390625,-88.7939453125,97.8955078125
0.0924178000000002,-85.4052734375,-87.4755859375,108.4423828125
0.093429,-87.1142578125,-87.5732421875,116.5966796875
0.0945863999999998,-88.5302734375,-87.8662109375,120.0146484375
0.0955864000000002,-90.8740234375,-86.1572265625,123.6279296875
0.0965278999999999,-91.4599609375,-86.9873046875,122.2607421875
0.0974594999999998,-91.0205078125,-87.9150390625,118.4033203125
0.0984430000000001,-87.8466796875,-87.6220703125,114.8388671875
0.0993802000000001,-84.6728515625,-87.9638671875,110.7373046875
0.1003077,-81.3037109375,-88.4521484375,106.5869140625
0.1012492,-78.8134765625,-88.5009765625,103.9990234375
0.1022965,-76.3720703125,-88.7451171875,100.8740234375
0.1032442,-75.4443359375,-89.7216796875,96.2841796875
0.1041675,-74.7119140625,-89.5263671875,92.7197265625
0.1051034,-75.1025390625,-91.3818359375,88.8134765625
0.1060343,-75.5908203125,-91.7236328125,84.7607421875
0.1069565,-75.6884765625,-93.3837890625,81.0498046875
0.1078822,-77.1044921875,-94.0185546875,77.0947265625
0.1088466,-78.6181640625,-95.3369140625,71.7724609375
0.1097708,-80.9619140625,-96.9482421875,68.5986328125
0.1107012,-82.2802734375,-95.8251953125,69.6728515625
0.1116262,-83.8916015625,-94.1162109375,78.5107421875
0.1125647,-84.4287109375,-93.0908203125,92.4267578125
0.1135227,-85.6005859375,-92.8955078125,102.7783203125
0.1144531,-87.2607421875,-91.9189453125,111.5673828125
0.1154266,-88.3349609375,-91.9189453125,118.0126953125
0.1163695,-90.1416015625,-90.6494140625,121.7724609375
0.1173109,-91.6064453125,-90.3076171875,120.8935546875
0.1182336,-91.9482421875,-90.6982421875,117.9150390625
0.1193301,-90.3369140625,-91.4306640625,114.3017578125
0.1204631,-87.2119140625,-91.2841796875,110.4931640625
0.1215953,-83.5009765625,-90.5517578125,107.4658203125
0.1226124,-81.4013671875,-91.8212890625,104.3896484375
0.1235359,-79.8876953125,-92.8466796875,100.1904296875
0.1244586,-78.9599609375,-92.8466796875,96.5771484375
0.1253932,-77.4462890625,-93.6279296875,92.4267578125
0.1263248,-77.3974609375,-95.0927734375,87.6904296875
0.1272583,-77.4951171875,-95.6787109375,83.8330078125
0.1282447,-77.8369140625,-97.1435546875,78.4619140625
0.1291876,-78.4716796875,-98.4619140625,74.7509765625
0.1301222,-80.0830078125,-99.8291015625,70.5029296875
0.1310614,-80.2294921875,-99.6826171875,66.7919921875
0.1319957,-81.8896484375,-101.0986328125,65.7177734375
0.1329741,-83.7939453125,-99.5849609375,72.4072265625
0.1339268,-85.0634765625,-98.6572265625,86.8603515625
0.1348463,-86.7236328125,-97.2900390625,100.9716796875
0.1357752,-88.7255859375,-96.8017578125,112.9833984375
0.1367007,-89.7021484375,-96.2158203125,121.8701171875
0.1376174,-92.4365234375,-95.9716796875,129.4384765625
0.1385431,-93.7548828125,-96.2158203125,131.5869140625
0.1394748,-94.4384765625,-95.9716796875,129.7314453125
0.1403979,-93.9013671875,-96.4599609375,124.6533203125
0.141329,-91.0693359375,-95.8740234375,119.4287109375
0.1422521,-88.1884765625,-95.6298828125,114.6435546875
0.1432209,-85.8935546875,-95.8251953125,110.7861328125
0.1441805,-83.7939453125,-95.5322265625,107.3681640625
0.1451031,-81.4013671875,-95.8251953125,101.8017578125
0.1460246,-80.6201171875,-96.7529296875,97.1630859375
0.1469708,-80.2294921875,-97.4853515625,92.3291015625
0.1479145,-81.7431640625,-97.6806640625,87.9345703125
0.1488355,-82.0849609375,-98.6083984375,83.2958984375
0.1498441,-82.9638671875,-99.8291015625,78.4619140625
0.1507685,-83.6962890625,-99.5849609375,73.3837890625
0.1516894,-85.4052734375,-100.7568359375,68.9892578125
0.152612,-86.5283203125,-101.2451171875,65.7177734375
0.1535429,-87.2607421875,-101.4892578125,68.8916015625
0.1544649,-89.0673828125,-100.3173828125,80.1220703125
0.1553942,-90.5322265625,-99.2431640625,96.3330078125
0.1563152,-92.3876953125,-97.2900390625,111.3720703125
0.1573183,-93.3642578125,-97.0947265625,123.9208984375
0.1582591,-95.6103515625,-94.8974609375,132.5146484375
0.159182,-96.7822265625,-89.0380859375,137.4462890625
0.1601163,-98.3935546875,-87.2802734375,136.6162109375
0.1610423,-99.6142578125,-88.4033203125,133.1005859375
0.161988,-98.0029296875,-91.5283203125,127.1435546875
0.1629228,-94.7802734375,-87.9638671875,120.6982421875
0.1638647,-92.0947265625,-91.1376953125,113.8134765625
0.1647859,-89.8486328125,-96.6552734375,108.1982421875
0.1657121,-92.7783203125,-94.2138671875,102.8271484375
0.1666256,-87.3583984375,-93.1396484375,98.5302734375
0.1675519,-81.9873046875,-93.0908203125,94.3798828125
0.1684807,-76.4697265625,-92.7001953125,89.4970703125
0.1694136,-68.9990234375,-92.6513671875,85.6884765625
0.1704929,-71.9775390625,-91.9677734375,81.2939453125
0.171438,-82.7685546875,-90.4052734375,76.9970703125
0.1723552,-91.3134765625,-90.7470703125,70.6005859375
0.173323,-91.5576171875,-91.0888671875,65.6201171875
0.1743475,-87.5048828125,-92.5537109375,60.3955078125
0.1752677,-85.8935546875,-93.4814453125,62.9833984375
0.17619,-86.5771484375,-92.6513671875,75.0927734375
0.1773377,-88.6767578125,-90.6494140625,91.4501953125
0.1782755,-89.7509765625,-89.6240234375,106.1474609375
0.1791965,-91.0693359375,-89.8681640625,117.3291015625
0.1801573,-92.6806640625,-89.6728515625,124.6044921875
0.1813356,-93.8037109375,-88.3544921875,129.1455078125
0.1824629,-94.3408203125,-88.5986328125,132.4169921875
0.1836323,-93.8525390625,-88.4033203125,129.1943359375
0.1845877,-91.6064453125,-89.1357421875,125.0439453125
0.1855079,-88.4814453125,-89.2822265625,120.5517578125
0.1864339,-90.7275390625,-91.8212890625,118.5009765625
0.1874879,-92.7783203125,-92.3095703125,116.1083984375
0.1884386,-93.6083984375,-93.4814453125,111.8603515625
0.1893525,-90.7275390625,-94.1650390625,108.3447265625
0.1902843,-86.5771484375,-94.7021484375,103.9990234375
0.1915169,-84.4775390625,-96.0693359375,99.2138671875
0.1927037,-84.0380859375,-96.9482421875,94.0380859375
0.1936621,-84.9658203125,-97.2412109375,89.6923828125
0.1945942,-85.1123046875,-97.9248046875,85.8837890625
0.1955148,-87.2607421875,-98.3642578125,80.1220703125
0.1964507,-88.2861328125,-99.2431640625,75.2880859375
0.1973812,-90.9716796875,-100.9521484375,72.2119140625
0.1982963,-92.4365234375,-100.2197265625,74.0185546875
0.1992069,-94.0966796875,-97.5830078125,86.2744140625
0.2001901,-96.6845703125,-95.9716796875,102.9248046875
0.2011179,-98.4423828125,-95.5810546875,116.9873046875
0.2020501,-101.5185546875,-95.1416015625,128.3642578125
0.2030326,-102.5439453125,-94.7998046875,134.8095703125
0.2039491,-103.0810546875,-94.7021484375,138.8623046875
0.2048626,-103.2275390625,-94.0185546875,137.7880859375
0.2058001,-103.0810546875,-94.9462890625,131.2451171875
0.2067526,-101.7626953125,-95.2880859375,125.7275390625
0.2076893,-99.7119140625,-94.9462890625,120.5029296875
0.2086224,-97.6611328125,-94.4580078125,115.6201171875
0.2095438,-95.0732421875,-95.5810546875,112.2021484375
0.2104704,-93.3642578125,-96.0205078125,107.8564453125
0.2113986,-92.4365234375,-97.2900390625,101.3134765625
0.2123194,-91.6552734375,-97.5341796875,96.2353515625
0.2132438,-91.3134765625,-97.2412109375,91.3525390625
0.2141721,-92.1923828125,-96.7041015625,84.9560546875
0.2150906,-92.4853515625,-96.8994140625,79.7314453125
0.2160139,-92.4853515625,-97.0947265625,75.4345703125
0.2169542,-92.1435546875,-98.0224609375,69.8193359375
0.2178728,-92.9248046875,-98.1689453125,64.2529296875
0.2188242,-93.5595703125,-99.1455078125,63.8134765625
0.2197519,-94.5849609375,-97.3388671875,72.2607421875
0.2206756,-95.9033203125,-96.6064453125,89.1552734375
0.2216163,-97.9052734375,-95.1416015625,104.2919921875
0.222722,-98.5888671875,-94.4091796875,116.3037109375
0.2237133,-99.5654296875,-94.0185546875,124.7509765625
0.2246519,-101.6650390625,-93.6767578125,129.6826171875
0.2255747,-103.3251953125,-92.8955078125,130.4638671875
0.2265041,-104.4970703125,-93.6767578125,125.5322265625
0.2274351,-105.8642578125,-94.0185546875,119.7216796875
0.2283508,-102.2509765625,-94.6044921875,114.7900390625
0.2292701,-100.0537109375,-94.2138671875,110.2490234375
0.2302099,-96.5869140625,-95.4833984375,106.2939453125
0.2311313,-93.7548828125,-95.9228515625,101.4599609375
0.2320528,-92.4853515625,-97.4853515625,97.6025390625
0.2330092,-90.4345703125,-97.4365234375,93.4521484375
0.2339326,-89.4091796875,-98.5595703125,90.0830078125
0.2348675,-89.7998046875,-99.2431640625,87.0556640625
0.235794,-89.5556640625,-99.8779296875,83.1982421875
0.2368089,-90.0927734375,-99.4873046875,79.6337890625
0.2377293,-91.6552734375,-101.1474609375,75.7763671875
0.2386526,-91.7529296875,-101.7333984375,71.2353515625
0.2395794,-93.1689453125,-102.7587890625,69.4287109375
0.2405007,-94.0478515625,-102.4658203125,75.1416015625
0.2414275,-94.8779296875,-100.6591796875,88.7158203125
0.2423554,-95.9033203125,-99.6826171875,105.7080078125
0.2432807,-96.5869140625,-98.1689453125,119.5263671875
0.244206,-97.9052734375,-98.6083984375,130.2685546875
0.2451348,-99.7607421875,-98.7548828125,137.1533203125
0.2460727,-101.1279296875,-98.5595703125,140.2783203125
0.2470047,-101.6650390625,-97.6806640625,139.1552734375
0.2479444,-102.5439453125,-98.8037109375,134.4189453125
0.2488735,-101.5185546875,-99.4873046875,127.6318359375
0.2498087,-99.1259765625,-100.5126953125,122.5048828125
0.250729,-96.2939453125,-101.5869140625,118.5986328125
0.2516694,-93.4130859375,-101.6845703125,114.9853515625
0.2525943,-90.9716796875,-103.6376953125,109.9072265625
0.2535347,-87.6513671875,-103.7841796875,105.3662109375
0.2544639,-84.6728515625,-105.2490234375,101.1181640625
0.255401,-82.6220703125,-105.9326171875,96.3818359375
0.2563269,-82.3291015625,-107.1044921875,92.4267578125
0.2572568,-82.5732421875,-106.9091796875,87.8857421875
0.2581717,-83.4521484375,-109.0576171875,83.6376953125
0.2591046,-84.3310546875,-108.7646484375,79.2431640625
0.2600477,-85.4052734375,-110.1806640625,75.0927734375
0.2609752,-86.0400390625,-110.9130859375,75.6787109375
0.2619062,-86.9677734375,-110.3759765625,84.2236328125
0.2629394,-88.7255859375,-109.0087890625,101.1181640625
0.2639142,-90.0439453125,-107.4951171875,116.9384765625
0.2651427,-91.1669921875,-106.8603515625,131.4404296875
0.2661289,-92.3876953125,-106.2255859375,141.2548828125
0.2670762,-94.2431640625,-106.4697265625,147.8466796875
0.2680147,-95.8056640625,-106.1767578125,150.0927734375
0.2689589,-96.6845703125,-106.7626953125,146.2841796875
0.2698862,-97.3681640625,-107.2021484375,139.9853515625
0.2708179,-96.8310546875,-108.2275390625,135.1025390625
0.2717468,-94.1455078125,-108.6669921875,131.6357421875
0.2726725,-90.6298828125,-108.8134765625,126.6552734375
0.2736097,-88.1884765625,-108.5693359375,122.1142578125
0.274547,-84.9658203125,-108.9111328125,116.5478515625
0.2754948,-82.7197265625,-110.1318359375,111.6650390625
0.2764457,-80.9130859375,-110.0830078125,107.8564453125
0.2774139,-79.7412109375,-111.0107421875,104.2919921875
0.2784086,-80.1806640625,-111.2548828125,99.2626953125
0.279403,-80.1318359375,-111.5966796875,95.7958984375
0.2808404,-80.7666015625,-112.8662109375,91.7919921875
0.2961958,-82.1826171875,-112.8173828125,86.7138671875
0.3322036,-83.1591796875,-113.2568359375,84.1259765625
0.355681,-84.5751953125,-114.0380859375,83.4912109375
0.3907637,-85.4541015625,-112.8662109375,90.9619140625
0.4157684,-86.5771484375,-110.9130859375,106.9287109375
0.4554274,-88.2373046875,-110.4248046875,121.2353515625
0.4796145,-89.4091796875,-109.9853515625,133.1005859375
0.5094843,-90.8740234375,-108.8623046875,141.8408203125
0.559033,-93.1201171875,-107.9833984375,146.1865234375
0.5911604,-94.4384765625,-107.3974609375,147.0654296875
0.597159,-95.3662109375,-107.9833984375,142.9638671875
0.6350654,-96.3427734375,-109.2041015625,136.8115234375
0.6591183,-94.4873046875,-109.8876953125,130.7568359375
0.6996321,-92.2412109375,-109.6923828125,125.8740234375
0.7198016,-88.7744140625,-110.0830078125,121.9677734375
0.7568362,-86.7236328125,-109.0576171875,117.6708984375
0.7762309,-83.4033203125,-110.1806640625,113.2763671875
0.8240634,-81.4990234375,-110.0830078125,107.8564453125
0.8430737,-78.4228515625,-111.0595703125,104.2431640625
0.8801486,-78.0810546875,-110.1806640625,99.6533203125
0.9000166,-77.6904296875,-110.1318359375,96.3818359375
0.9364173,-79.0576171875,-111.1083984375,92.6220703125
0.9624776,-80.9619140625,-111.4013671875,88.1787109375
1.0004826,-81.4501953125,-112.3779296875,84.4189453125
1.0204279,-81.6943359375,-112.6220703125,81.9287109375
1.0554333,-82.7685546875,-112.9638671875,84.2236328125
1.0814896,-82.8662109375,-111.0595703125,95.6982421875
1.1176296,-84.7216796875,-110.6689453125,111.0302734375
1.1426586,-85.6982421875,-109.4482421875,124.2626953125
1.1793194,-87.5048828125,-108.4228515625,134.2236328125
1.198246,-89.4580078125,-107.7880859375,141.8896484375
1.2342686,-90.7763671875,-108.1298828125,145.3564453125
1.2637309,-91.8505859375,-107.9345703125,145.4052734375
1.3012289,-92.8759765625,-107.9345703125,139.6435546875
1.323197,-93.7548828125,-108.3251953125,133.0029296875
1.3608414,-90.9716796875,-108.2275390625,128.3642578125
1.3811539,-88.9208984375,-108.0322265625,123.5302734375
1.417134,-85.8935546875,-108.6669921875,119.6728515625
1.4427447,-82.4755859375,-108.3740234375,117.3291015625
1.4837187,-79.5458984375,-108.9599609375,113.2275390625
1.5033452,-76.8603515625,-109.6435546875,108.9306640625
1.5406499,-75.2978515625,-109.8876953125,105.2197265625
1.5648578,-74.9072265625,-110.0830078125,101.4111328125
1.6011515,-76.0302734375,-111.3525390625,98.3837890625
1.6257075,-76.9580078125,-111.2060546875,94.5263671875
1.6623283,-77.8369140625,-111.6455078125,90.7177734375
1.6839653,-78.7158203125,-112.1337890625,87.3486328125
1.7187548,-79.7412109375,-112.3291015625,83.5400390625
1.7441305,-81.3525390625,-112.4267578125,83.9306640625
1.7796509,-82.7685546875,-111.7919921875,95.4052734375
1.805459,-84.7216796875,-109.3505859375,112.5927734375
1.8408929,-86.5771484375,-108.0810546875,126.1181640625
1.8644506,-86.8701171875,-108.1787109375,137.2021484375
1.9009714,-88.3349609375,-107.1533203125,145.9423828125
1.9229081,-90.5322265625,-106.6162109375,150.5322265625
1.9646696,-92.0947265625,-106.8115234375,151.8505859375
1.986112,-93.0224609375,-106.5185546875,147.8466796875
2.0241361,-94.8779296875,-107.2021484375,141.8896484375
2.0461072,-93.2177734375,-108.0322265625,136.8115234375
2.0852941,-89.5068359375,-107.9833984375,132.9541015625
2.1060133,-86.4306640625,-107.9345703125,129.6337890625
2.1428924,-82.7685546875,-107.7392578125,125.5810546875
2.1679937,-80.1318359375,-108.5205078125,121.3330078125
2.2037199,-78.2275390625,-108.7158203125,117.0361328125
2.2343827,-75.7861328125,-108.3251953125,112.5927734375
2.2563935,-73.8330078125,-108.5693359375,109.7119140625
2.2893931,-74.7119140625,-109.0576171875,106.1474609375
2.3321562,-75.7373046875,-109.3505859375,101.8017578125
2.3637523,-76.2255859375,-109.7412109375,98.2861328125
2.3795791,-78.5205078125,-109.9365234375,94.0380859375
2.4187919,-78.6181640625,-109.7412109375,90.6201171875
2.4381633,-80.1318359375,-109.7900390625,89.3505859375
2.4761553,-81.9873046875,-108.8134765625,95.1123046875
2.4984809,-83.5986328125,-108.2763671875,109.3212890625
2.5323945,-85.0146484375,-105.8837890625,123.1884765625
2.561005,-86.4794921875,-105.1513671875,135.4931640625
2.5950838,-87.9931640625,-104.1748046875,143.9404296875
2.6220361,-89.7509765625,-104.7607421875,149.6533203125
2.6580844,-92.0458984375,-103.4423828125,152.6318359375
2.6795764,-93.0224609375,-103.5888671875,150.8251953125
2.7170257,-93.7060546875,-103.7353515625,145.8447265625
2.7389999,-94.0478515625,-103.9794921875,139.0576171875
2.7740241,-91.0693359375,-104.5166015625,135.4443359375
2.8000239,-88.8232421875,-104.8583984375,132.5634765625
2.8375559,-85.2099609375,-104.6630859375,129.5849609375
2.862254,-82.2314453125,-105.2490234375,126.4599609375
2.8918477,-79.1552734375,-106.2744140625,122.8955078125
2.9198845,-77.1533203125,-106.1279296875,117.6220703125
2.9545368,-75.5908203125,-106.1279296875,114.1552734375
2.9830288,-74.4677734375,-107.4951171875,109.1748046875
3.0197943,-76.0791015625,-107.3974609375,105.7568359375
3.0457849,-76.8603515625,-107.6416015625,101.7529296875
3.0705686,-78.2275390625,-107.7880859375,97.2119140625
3.1167053,-79.1552734375,-107.5439453125,93.0126953125
3.1377535,-80.6201171875,-107.9345703125,88.4716796875
3.1619046,-82.7685546875,-107.5439453125,86.1767578125
3.2116232,-83.4521484375,-107.2998046875,91.7431640625
3.2215367,-85.6982421875,-105.0048828125,104.8291015625
3.2577201,-87.7490234375,-104.3212890625,118.8916015625
3.2885511,-89.0185546875,-104.0771484375,129.4384765625
3.3138456,-90.6787109375,-103.0517578125,136.2255859375
3.3451618,-92.4365234375,-101.7822265625,140.9619140625
3.3761509,-94.2431640625,-101.1474609375,143.2080078125
3.4043174,-96.0986328125,-101.5869140625,141.0595703125
3.432289,-96.8310546875,-101.3916015625,136.6162109375
3.4678108,-97.3193359375,-102.8076171875,132.5634765625
3.4937333,-94.5849609375,-103.2470703125,129.7314453125
3.5269201,-90.6298828125,-102.2705078125,126.6552734375
3.5545805,-88.3837890625,-103.4423828125,124.0185546875
3.5831755,-85.7958984375,-104.3701171875,119.1357421875
3.6160256,-83.7451171875,-104.4189453125,115.4736328125
3.6444058,-80.9619140625,-104.7119140625,111.3720703125
3.6774562,-78.6181640625,-104.4189453125,107.7587890625
3.7067079,-77.5439453125,-104.6142578125,103.6083984375
3.7354697,-78.9111328125,-104.2236328125,99.8974609375
3.76337,-79.6435546875,-105.2978515625,96.1376953125
3.7967578,-81.2060546875,-105.4443359375,92.4755859375
3.8260199,-82.4267578125,-105.5419921875,87.6904296875
3.8577397,-83.8427734375,-105.5419921875,83.1494140625
3.886991,-84.7705078125,-105.5419921875,84.4677734375
3.9162526,-85.5517578125,-103.3447265625,95.0146484375
3.9482526,-87.6025390625,-102.2705078125,108.5400390625
3.9777318,-89.1162109375,-101.2451171875,119.1845703125
4.0106691,-91.0693359375,-101.3427734375,127.5830078125
4.0381569,-92.3388671875,-101.0009765625,133.8330078125
4.0658568,-93.9013671875,-101.1962890625,135.7861328125
4.0973175,-95.9033203125,-100.1220703125,135.4931640625
4.1275465,-96.8310546875,-101.9287109375,131.3427734375
4.1578746,-97.6611328125,-102.3193359375,127.7294921875
4.1911416,-97.4658203125,-101.9287109375,123.5791015625
4.2183214,-93.2177734375,-102.3681640625,121.2353515625
4.2480485,-90.9716796875,-102.7587890625,119.0869140625
4.2790526,-87.6025390625,-103.5400390625,116.4013671875
4.3095606,-83.7451171875,-103.6376953125,113.4228515625
4.3414845,-81.9873046875,-104.3212890625,109.5166015625
4.3717103,-79.9365234375,-103.7353515625,106.1962890625
4.3992928,-78.9111328125,-104.6630859375,102.9248046875
4.4326029,-79.3994140625,-105.0048828125,99.5556640625
4.4605879,-80.6201171875,-105.8349609375,96.0888671875
4.4892705,-81.7919921875,-106.7138671875,92.3779296875
4.5225049,-82.4755859375,-106.9091796875,89.1064453125
4.5620235,-83.2080078125,-107.7880859375,85.6884765625
4.5795836,-85.2099609375,-107.7392578125,85.9326171875
4.6114323,-86.3818359375,-105.6884765625,94.8193359375
4.6474732,-88.0419921875,-105.4443359375,106.3427734375
4.6731319,-89.1650390625,-104.2236328125,117.8173828125
4.7222492,-90.9228515625,-103.6376953125,127.7294921875
4.7440469,-92.3388671875,-103.2958984375,134.5654296875
4.7633398,-94.2919921875,-103.3935546875,138.8134765625
4.8004839,-95.7080078125,-101.9775390625,139.8876953125
4.8223534,-97.8076171875,-102.5146484375,137.7392578125
4.855059,-98.7841796875,-104.3701171875,133.5400390625
4.8924035,-99.9072265625,-104.0771484375,129.8779296875
4.9112965,-97.2216796875,-104.2724609375,126.3134765625
4.9443701,-92.9248046875,-104.4677734375,123.1396484375
4.9803056,-89.6044921875,-105.0048828125,120.4052734375
5.0068161,-85.2099609375,-105.2001953125,116.6943359375
5.0343463,-82.2802734375,-106.1767578125,112.8857421875
5.0684383,-78.8134765625,-107.1533203125,108.7353515625
5.0949331,-76.7626953125,-107.4462890625,105.9521484375
5.1289285,-75.8837890625,-108.1298828125,102.3876953125
5.153268,-76.9580078125,-108.1787109375,98.8232421875
5.1892722,-77.6416015625,-109.0087890625,95.0146484375
5.2148286,-79.4970703125,-110.2783203125,92.8173828125
5.2588852,-80.6201171875,-110.3759765625,89.2041015625
5.280719,-81.1083984375,-110.2294921875,86.8115234375
5.3026824,-82.8662109375,-110.3759765625,90.6689453125
5.3406428,-84.4287109375,-108.3740234375,101.4599609375
5.3641464,-85.6982421875,-107.5927734375,113.4228515625
5.4031387,-87.5537109375,-107.1044921875,123.0419921875
5.4271404,-87.6513671875,-106.5673828125,129.8779296875
5.4548062,-90.2880859375,-106.6162109375,134.9072265625
5.4908317,-91.5576171875,-106.0791015625,138.9111328125
5.5162102,-93.5107421875,-106.4208984375,137.5927734375
5.5522457,-96.1962890625,-107.3974609375,133.9306640625
5.5781839,-96.5380859375,-107.6904296875,129.6337890625
5.6152792,-96.1962890625,-107.6904296875,126.4111328125
5.6350154,-92.6806640625,-108.4228515625,123.9697265625
5.6698545,-88.5791015625,-108.5693359375,121.1376953125
5.695053,-85.8447265625,-108.8623046875,117.8173828125
5.7300039,-81.5478515625,-109.8876953125,113.5205078125
5.7571632,-78.8134765625,-109.3994140625,109.8095703125
5.7916445,-76.3720703125,-110.6689453125,106.3916015625
5.8166201,-75.3466796875,-111.1572265625,102.8271484375
5.8545935,-75.4931640625,-111.2548828125,99.4091796875
5.8748831,-76.5185546875,-112.4267578125,96.3330078125
5.9119289,-77.5439453125,-112.2802734375,93.1591796875
5.9375906,-78.2275390625,-112.6220703125,88.1298828125
5.9706072,-79.2529296875,-113.6962890625,85.5908203125
5.9996387,-81.2060546875,-112.9150390625,87.0556640625
6.0361278,-82.6220703125,-111.5966796875,96.3330078125
6.0615705,-84.0869140625,-109.6435546875,107.7099609375
6.0989957,-85.1611328125,-110.1318359375,117.2314453125
6.1184852,-87.2119140625,-109.3505859375,124.1162109375
6.1582212,-88.4326171875,-108.9111328125,129.5849609375
6.1802739,-89.7021484375,-108.0810546875,131.5869140625
6.2193068,-91.7529296875,-108.0322265625,131.3427734375
6.2401967,-93.0712890625,-109.2041015625,127.3388671875
6.2785979,-94.1943359375,-109.1552734375,123.7255859375
6.3043776,-94.2919921875,-109.6923828125,121.3330078125
6.3388744,-92.2900390625,-108.1298828125,117.7685546875
6.3618954,-87.8466796875,-109.6923828125,115.2294921875
6.3938689,-85.4541015625,-110.2783203125,112.7392578125
6.4319367,-82.6220703125,-110.0830078125,109.8095703125
6.4524444,-80.4736328125,-109.9365234375,106.6357421875
6.4909581,-77.8857421875,-110.3759765625,103.4619140625
6.5123474,-76.8115234375,-111.0595703125,100.4345703125
6.5559308,-77.2021484375,-111.7919921875,96.5771484375
6.5763293,-77.9345703125,-111.6943359375,93.4521484375
6.6138779,-78.3251953125,-111.9384765625,89.9365234375
6.6304615,-79.6435546875,-113.0615234375,85.0537109375
6.666845,-80.6201171875,-112.5732421875,82.9541015625
6.6929198,-82.0361328125,-111.6455078125,86.8115234375
6.7272832,-84.1357421875,-110.1318359375,95.1123046875
6.7538882,-85.7470703125,-109.2041015625,105.8056640625
6.7932618,-87.4560546875,-108.3251953125,116.9873046875
6.8172643,-89.6533203125,-107.2998046875,124.4580078125
6.8564818,-90.8740234375,-107.3486328125,130.4150390625
6.8725981,-92.5830078125,-105.9326171875,134.1748046875
6.9186009,-94.5361328125,-105.9814453125,134.0283203125
6.9394405,-96.2451171875,-106.8115234375,130.6591796875
6.9619323,-97.2705078125,-106.7626953125,127.1923828125
6.9988255,-97.8076171875,-106.8115234375,125.0927734375
7.0267144,-94.2919921875,-107.0068359375,122.1630859375
7.0625234,-91.2646484375,-107.1533203125,120.0634765625
7.0903258,-88.1884765625,-108.3740234375,117.0361328125
7.1133428,-84.4775390625,-108.1787109375,113.4716796875
7.1540578,-81.0107421875,-108.1787109375,109.3212890625
7.1865149,-78.5693359375,-109.1064453125,106.6357421875
7.2035082,-76.1279296875,-108.9111328125,103.6572265625
7.2488153,-76.2744140625,-109.4970703125,99.6533203125
7.2807121,-77.3486328125,-109.8388671875,95.5029296875
7.2941721,-78.6181640625,-110.1806640625,92.3291015625
7.3304476,-79.3505859375,-110.9619140625,89.0087890625
7.3589234,-80.6201171875,-111.6455078125,86.8603515625
7.3956324,-82.0849609375,-110.7177734375,89.1552734375
7.4180269,-83.7451171875,-108.2275390625,99.4091796875
7.4569961,-85.5029296875,-107.5439453125,111.1767578125
7.4771875,-87.3583984375,-107.0068359375,121.7236328125
7.5113156,-89.0673828125,-105.0048828125,131.2939453125
7.5363269,-90.8740234375,-105.1025390625,138.7646484375
7.5808356,-92.3876953125,-103.7841796875,141.7431640625
7.6018599,-94.3896484375,-103.0029296875,142.5732421875
7.6293556,-96.6845703125,-103.7841796875,139.3994140625
7.6653517,-97.3193359375,-103.4912109375,135.9326171875
7.6858351,-98.2470703125,-103.9306640625,132.9541015625
7.7223439,-94.7802734375,-103.9306640625,130.6103515625
7.7489621,-91.4599609375,-103.4423828125,127.8271484375
7.7869466,-88.4814453125,-103.8330078125,124.2626953125
7.8091833,-84.8681640625,-103.7841796875,119.7216796875
7.8458078,-81.6943359375,-102.9541015625,115.9619140625
7.8656935,-78.8623046875,-103.6865234375,111.8603515625
7.9008211,-76.2255859375,-103.6865234375,108.2958984375
7.9288586,-76.6650390625,-103.3935546875,104.1455078125
7.964292,-77.1044921875,-103.6376953125,100.4345703125
7.9908278,-78.2275390625,-103.0029296875,96.6259765625
8.0315486,-79.5947265625,-103.5400390625,93.4521484375
8.0519793,-80.9130859375,-103.3447265625,89.6435546875
8.0798203,-83.1103515625,-102.3193359375,92.5732421875
8.1172471,-84.0869140625,-100.4150390625,102.0458984375
8.1403642,-86.2841796875,-98.6572265625,113.4228515625
8.1754104,-87.5537109375,-98.9990234375,122.0654296875
8.1997287,-89.7021484375,-96.7529296875,130.1220703125
8.2368693,-91.8017578125,-96.5087890625,136.2744140625
8.2598739,-92.9736328125,-95.3857421875,140.8642578125
8.2924967,-94.2431640625,-94.3603515625,141.3525390625
8.3210868,-96.1474609375,-95.5322265625,137.8857421875
8.3566945,-96.2451171875,-95.2392578125,134.1748046875
8.3840043,-97.4658203125,-94.7021484375,131.0009765625
8.4129253,-95.7080078125,-94.3115234375,128.8525390625
8.4444725,-91.1669921875,-93.6279296875,125.6787109375
8.4727369,-87.2119140625,-94.5556640625,121.6748046875
8.502446,-83.9892578125,-93.9208984375,118.5986328125
8.5297672,-79.8388671875,-93.9208984375,115.6689453125
8.5638137,-77.4951171875,-93.4814453125,111.6162109375
8.5919548,-75.2001953125,-94.0673828125,109.1259765625
8.6276366,-73.4423828125,-93.6767578125,104.4873046875
8.6530447,-74.9560546875,-93.8232421875,100.9716796875
8.6871239,-75.9814453125,-94.3115234375,96.9677734375
8.715433,-76.2744140625,-94.2138671875,93.3056640625
8.7440699,-78.3251953125,-94.3603515625,91.4990234375
8.77668,-79.6923828125,-92.9931640625,96.1865234375
8.8059311,-80.6201171875,-90.4052734375,106.0986328125
8.8331271,-83.3544921875,-89.6240234375,115.6201171875
8.8636811,-83.9892578125,-87.4267578125,122.7978515625
8.8971296,-86.1865234375,-86.5478515625,129.1943359375
8.9248961,-87.8466796875,-85.5712890625,134.0771484375
8.956276,-88.8720703125,-84.9853515625,136.4697265625
8.9863056,-90.7763671875,-85.2783203125,134.1748046875
9.0133189,-92.8271484375,-85.2783203125,130.4150390625
9.0472176,-94.1943359375,-84.7412109375,127.9248046875
9.0753425,-95.3662109375,-84.7412109375,124.3603515625
9.1093115,-92.5830078125,-84.6435546875,120.8935546875
9.1373663,-88.0908203125,-84.2529296875,117.1337890625
9.1648462,-85.0634765625,-85.1806640625,114.2529296875
9.1997594,-81.4990234375,-85.0341796875,110.2978515625
9.2272179,-78.3251953125,-85.4248046875,106.4892578125
9.2573264,-74.9560546875,-85.7177734375,102.6806640625
9.2898375,-72.9052734375,-86.4013671875,99.7509765625
9.31789,-72.1728515625,-85.8642578125,95.9423828125
9.3475697,-72.9052734375,-85.9619140625,92.1337890625
9.3788728,-74.0771484375,-86.5478515625,88.4716796875
9.4078911,-74.8095703125,-86.6455078125,84.7119140625
9.43983,-76.5185546875,-86.9384765625,83.8330078125
9.4679637,-77.6416015625,-84.6435546875,91.6455078125
9.5058718,-78.5205078125,-84.0087890625,100.9228515625
9.5298712,-79.8876953125,-82.9833984375,110.7373046875
9.5579888,-81.5478515625,-82.1533203125,118.8916015625
9.5878757,-82.7197265625,-81.0302734375,125.8740234375
9.6218837,-83.0615234375,-79.4189453125,130.8544921875
9.6498889,-84.9658203125,-79.4677734375,132.6123046875
9.6778769,-86.5283203125,-79.5654296875,130.6591796875
9.7098735,-87.6513671875,-80.8349609375,126.3623046875
9.749838,-89.0673828125,-81.5673828125,123.4326171875
9.7717343,-89.2138671875,-81.2255859375,120.1123046875
9.7997655,-85.0634765625,-81.6650390625,117.5244140625
9.8307887,-80.8154296875,-81.3232421875,113.8134765625
9.8653752,-77.0068359375,-81.9091796875,110.5419921875
9.8899565,-73.0029296875,-81.3720703125,107.7099609375
9.929722,-69.1455078125,-82.2509765625,104.1455078125
9.9518986,-66.6552734375,-82.9345703125,100.7763671875
9.9796872,-63.7744140625,-83.2763671875,96.8212890625
10.0215656,-62.9443359375,-83.3740234375,93.3056640625
10.042565,-63.4814453125,-83.9111328125,89.5947265625
10.0789543,-64.6044921875,-84.3017578125,86.3720703125
10.1018672,-66.6064453125,-84.9853515625,82.4658203125
10.1318959,-68.6083984375,-85.0830078125,82.7099609375
10.1608665,-70.9033203125,-82.5439453125,89.7900390625
10.1989134,-72.8564453125,-81.8115234375,100.2392578125
10.220356,-74.7607421875,-80.9326171875,109.7607421875
10.2604273,-76.0791015625,-79.9560546875,118.1103515625
10.2832597,-78.2275390625,-79.7607421875,123.9208984375
10.3173652,-80.8642578125,-78.6865234375,127.8271484375
10.3465272,-82.0361328125,-78.7353515625,128.9990234375
10.3830456,-84.0869140625,-78.2470703125,126.3623046875
10.4025565,-86.1865234375,-79.0283203125,122.6025390625
10.4422498,-87.1630859375,-79.2236328125,118.6474609375
10.4642485,-88.2373046875,-79.0771484375,116.0107421875
10.4994177,-84.2822265625,-79.5654296875,113.4228515625
10.5244413,-81.1572265625,-79.7119140625,109.3701171875
10.5612499,-77.8857421875,-80.5908203125,105.9521484375
10.5822598,-74.4677734375,-80.2001953125,101.9970703125
10.6196301,-70.5126953125,-81.0791015625,97.9931640625
10.6436124,-67.4365234375,-80.8837890625,95.1123046875
10.6776419,-65.3857421875,-81.6162109375,90.9619140625
10.7058236,-65.0439453125,-82.8857421875,88.0810546875
10.7438209,-66.3623046875,-82.9345703125,83.0517578125
10.7658141,-68.4130859375,-83.9111328125,79.7314453125
10.8006736,-69.7314453125,-84.2041015625,78.4130859375
10.8279383,-71.1962890625,-82.9345703125,83.1494140625
10.8624495,-71.8310546875,-80.5419921875,90.7666015625
10.8861772,-73.8330078125,-80.3466796875,99.9951171875
10.9236757,-75.4443359375,-79.2724609375,108.6865234375
10.9488421,-77.6904296875,-79.1259765625,114.1064453125
10.9842809,-79.7412109375,-77.3681640625,117.3779296875
11.008253,-80.6689453125,-77.8564453125,118.3056640625
11.0443009,-82.4755859375,-77.7099609375,116.0107421875
11.0653058,-84.1357421875,-79.1259765625,112.1044921875
11.1009924,-85.7470703125,-78.5400390625,109.3701171875
11.1286905,-87.4072265625,-79.2236328125,106.0009765625
11.1695483,-86.5771484375,-78.9306640625,102.9736328125
11.1895449,-82.2314453125,-80.2001953125,100.0439453125
11.2258058,-79.3505859375,-81.4208984375,96.5283203125
11.2456098,-75.6396484375,-81.9091796875,92.8662109375
11.2839599,-72.3193359375,-82.4951171875,88.5693359375
11.3082168,-68.6572265625,-82.6904296875,83.8330078125
11.3414717,-66.4599609375,-82.6904296875,80.8544921875
11.3695431,-65.8740234375,-83.5205078125,77.3388671875
11.4045975,-67.7294921875,-83.9111328125,71.6748046875
11.4311912,-69.0478515625,-84.3017578125,68.2568359375
11.4680558,-70.4150390625,-85.4736328125,66.6455078125
11.4925164,-72.0751953125,-84.1064453125,68.7451171875
11.5282691,-73.5400390625,-81.9091796875,76.5087890625
11.5493701,-75.5908203125,-81.3232421875,85.5419921875
11.5846088,-77.1533203125,-80.0048828125,93.6962890625
11.6096404,-79.4482421875,-79.4677734375,100.2880859375
11.6455671,-80.8642578125,-79.1259765625,106.1474609375
11.6719192,-82.6708984375,-78.1494140625,109.6630859375
11.7063479,-84.6240234375,-77.7099609375,109.6630859375
11.7272275,-85.9423828125,-78.6865234375,106.6845703125
11.7650113,-87.5537109375,-79.5166015625,103.9501953125
11.7891081,-88.0419921875,-79.1259765625,100.4833984375
11.8248867,-88.0908203125,-79.9560546875,97.8466796875
11.8529806,-84.5751953125,-79.7119140625,95.4541015625
11.8900666,-81.1572265625,-80.6884765625,92.7197265625
11.9146932,-76.4697265625,-81.3232421875,88.9599609375
11.95117,-73.4912109375,-81.5673828125,85.9326171875
11.9713007,-69.0478515625,-82.0068359375,83.2958984375
12.0092555,-65.5322265625,-83.3740234375,79.5849609375
12.0322172,-64.5556640625,-83.1298828125,76.4599609375
12.0696926,-64.5068359375,-83.8623046875,72.2607421875
12.0948518,-66.6552734375,-84.3994140625,68.7451171875
12.1318565,-68.5107421875,-84.9365234375,65.9130859375
12.1560127,-69.2919921875,-84.7412109375,66.3037109375
12.1919891,-70.9033203125,-84.5458984375,72.9443359375
12.2143586,-72.2216796875,-83.6669921875,82.3681640625
12.252702,-73.3935546875,-82.4951171875,91.6943359375
12.2753426,-76.1767578125,-82.5439453125,99.2626953125
12.3044022,-78.5205078125,-81.3720703125,105.0732421875
12.3394966,-79.6923828125,-80.8837890625,108.3447265625
12.3633637,-81.8408203125,-80.4931640625,109.6630859375
12.3985888,-83.3056640625,-80.3955078125,108.0517578125
12.4255492,-84.9658203125,-82.1533203125,104.7802734375
12.4650339,-86.3818359375,-82.6904296875,102.7783203125
12.484873,-88.1396484375,-82.8857421875,100.4345703125
12.524733,-87.4072265625,-83.6181640625,97.8466796875
12.5428043,-83.7451171875,-83.5205078125,95.1611328125
12.578173,-79.3017578125,-84.0087890625,92.1826171875
12.6056983,-75.4931640625,-84.0576171875,88.6669921875
12.640451,-71.2939453125,-85.2783203125,85.8349609375
12.6679602,-67.9736328125,-85.4736328125,82.2705078125
12.6967079,-65.9228515625,-86.3525390625,78.4619140625
12.7339996,-64.9462890625,-87.2314453125,74.5556640625
12.7569961,-67.0947265625,-87.4267578125,70.6494140625
12.7930787,-68.8037109375,-88.4033203125,67.2314453125
12.8186232,-70.0732421875,-88.5009765625,65.6689453125
12.8531687,-72.3681640625,-87.6220703125,71.1376953125
12.8741907,-74.6142578125,-86.2548828125,80.0244140625
12.9227887,-77.0556640625,-85.1318359375,89.2041015625
12.9427021,-79.4970703125,-84.6923828125,95.9423828125
12.9671397,-82.2314453125,-84.5947265625,102.2412109375
13.0035122,-83.7939453125,-82.7392578125,105.5615234375
13.0263889,-85.9423828125,-82.3974609375,107.7587890625
13.0606674,-88.7744140625,-82.7880859375,106.4404296875
13.0895849,-90.5322265625,-83.5693359375,103.5595703125
13.1253182,-92.5341796875,-82.5927734375,101.0693359375
13.1510554,-94.1455078125,-82.9833984375,98.2861328125
13.1792139,-94.5361328125,-83.3740234375,96.1865234375
13.2136405,-90.4833984375,-84.0576171875,92.7685546875
13.2415282,-88.2373046875,-84.5947265625,90.1318359375
13.2691786,-84.7705078125,-84.9365234375,86.6162109375
13.3039486,-81.4501953125,-85.8154296875,83.2470703125
13.330991,-79.4970703125,-85.5712890625,80.0732421875
13.3657458,-77.6416015625,-86.3037109375,76.9482421875
13.3931709,-77.4462890625,-86.4501953125,73.3349609375
13.4202043,-78.2763671875,-87.1337890625,69.8193359375
13.4498957,-80.2294921875,-86.7431640625,66.6943359375
13.4858808,-81.5966796875,-87.4267578125,67.2802734375
13.5112241,-83.1103515625,-85.5712890625,72.7001953125
13.5479819,-84.3798828125,-84.3017578125,83.4912109375
13.5711841,-86.2353515625,-83.0810546875,92.5732421875
13.6016799,-88.4814453125,-82.2509765625,99.9951171875
13.6309507,-89.8974609375,-80.9326171875,105.2197265625
13.6641805,-91.6064453125,-80.4443359375,108.9794921875
13.6892416,-93.5595703125,-79.8095703125,110.8349609375
13.7329168,-94.9755859375,-80.0048828125,108.4912109375
13.7523909,-96.7822265625,-80.5908203125,105.3173828125
13.7815625,-99.1748046875,-81.3232421875,103.2666015625
13.8178227,-99.7119140625,-82.4462890625,100.2392578125
13.8424137,-99.3212890625,-82.5927734375,97.4560546875
13.8762106,-96.7333984375,-83.1787109375,94.5751953125
13.904589,-92.8759765625,-84.2041015625,91.6943359375
13.9332877,-89.1162109375,-85.1806640625,88.0322265625
13.9658844,-86.0888671875,-85.2783203125,84.5166015625
13.9944143,-82.4755859375,-85.6201171875,81.0498046875
14.0241143,-79.7412109375,-86.7919921875,76.9970703125
14.0549583,-78.0810546875,-86.7919921875,74.1650390625
14.0832562,-77.9833984375,-87.2802734375,70.1611328125
14.1135802,-79.6435546875,-88.8427734375,67.0849609375
14.1457838,-81.0107421875,-88.1103515625,71.4306640625
14.1755541,-82.1826171875,-86.6455078125,80.5126953125
14.2060636,-84.0869140625,-85.2294921875,89.2529296875
14.2369585,-85.3076171875,-84.5458984375,98.8232421875
14.2646613,-87.7490234375,-83.5205078125,104.7314453125
14.2974206,-89.4580078125,-81.7626953125,108.3447265625
14.3248566,-90.8251953125,-81.1279296875,110.6396484375
14.355264,-93.3642578125,-82.2021484375,109.7119140625
14.3882036,-95.3173828125,-82.2998046875,107.2216796875
14.4166116,-96.6357421875,-82.7392578125,103.7548828125
14.4440826,-98.4912109375,-83.9111328125,100.1416015625
14.476902,-99.4189453125,-85.5224609375,96.7724609375
14.5061354,-97.6123046875,-84.7900390625,93.6474609375
14.5385235,-93.9990234375,-85.6201171875,89.9853515625
14.5729519,-89.4091796875,-86.4501953125,87.5439453125
14.5944744,-85.9912109375,-86.0107421875,83.4912109375
14.6286847,-81.4501953125,-87.4267578125,80.4150390625
14.6577576,-78.0322265625,-87.8662109375,75.8251953125
14.6878148,-75.2978515625,-88.7451171875,72.6513671875
14.7194176,-73.8330078125,-88.9892578125,68.3544921875
14.7478942,-75.8349609375,-90.1123046875,65.0341796875
14.7869384,-76.8603515625,-90.3564453125,62.7880859375
14.8095376,-78.3740234375,-91.2841796875,66.0107421875
14.8376648,-80.7177734375,-88.7451171875,74.8486328125
14.8695084,-81.8408203125,-88.2080078125,83.1982421875
14.9075075,-84.5263671875,-87.3779296875,92.0849609375
14.9255697,-86.3818359375,-87.0361328125,96.9677734375
14.9706161,-88.7255859375,-85.9130859375,100.7763671875
14.9886125,-89.7998046875,-85.6201171875,103.0712890625
15.0177545,-91.8505859375,-86.2548828125,101.6064453125
15.0516265,-92.8271484375,-87.5732421875,98.9208984375
15.0795992,-94.0478515625,-88.5498046875,95.8935546875
15.1115985,-95.6591796875,-88.2080078125,92.7685546875
15.1455354,-96.0498046875,-88.5986328125,90.6689453125
15.1690238,-95.1220703125,-89.4775390625,87.9345703125
15.2030133,-91.0205078125,-90.7470703125,85.7861328125
15.2399681,-87.2607421875,-90.6982421875,82.2705078125
15.2609655,-82.6220703125,-91.5771484375,78.6083984375
15.2920162,-78.9111328125,-92.3583984375,74.4091796875
15.3271314,-76.5185546875,-93.1884765625,70.9423828125
15.3491426,-74.5166015625,-94.1650390625,67.1826171875
15.3919242,-72.9052734375,-94.4580078125,64.0576171875
15.411081,-74.1748046875,-94.3603515625,59.4677734375
15.4463529,-76.2744140625,-94.9951171875,58.2958984375
15.4722913,-77.5439453125,-93.3349609375,59.9560546875
15.5093205,-79.1064453125,-92.6025390625,67.2802734375
15.5351984,-81.4501953125,-92.1630859375,75.4345703125
15.5624186,-83.5986328125,-92.1630859375,81.9287109375
15.5986298,-85.6005859375,-91.3818359375,88.0810546875
15.62263,-87.3583984375,-91.4794921875,92.2802734375
15.6570937,-89.9951171875,-90.2587890625,94.4775390625
15.6808653,-92.2900390625,-91.1865234375,94.3310546875
15.719626,-93.7060546875,-91.8701171875,91.8896484375
15.7434587,-95.6103515625,-92.0166015625,89.3994140625
15.7786529,-97.4169921875,-92.6513671875,86.9091796875
15.8036518,-97.9052734375,-91.6259765625,84.1259765625
15.8326558,-97.6123046875,-93.3837890625,81.7822265625
15.870538,-92.8759765625,-92.0166015625,79.0966796875
15.8922489,-88.8232421875,-93.3349609375,76.4599609375
15.9308513,-85.1611328125,-93.1396484375,72.8466796875
15.9554787,-82.2314453125,-93.7744140625,70.2587890625
15.9919639,-80.0830078125,-94.0673828125,66.7431640625
16.012035,-78.5693359375,-94.8974609375,62.8857421875
16.0487249,-78.8623046875,-94.9462890625,59.6142578125
16.0746688,-81.4990234375,-95.8740234375,55.7080078125
16.112362,-82.3779296875,-95.4833984375,54.2431640625
16.1355407,-84.2333984375,-94.4091796875,58.5888671875
16.1735301,-86.0400390625,-93.3349609375,66.3037109375
16.1965107,-86.9189453125,-92.7978515625,74.0673828125
16.2301772,-88.1396484375,-92.7490234375,80.6103515625
16.2605136,-90.0439453125,-91.7236328125,86.4208984375
16.2890143,-92.1923828125,-91.8212890625,91.0107421875
16.3254934,-93.5595703125,-91.6259765625,93.4033203125
16.3490816,-94.6337890625,-92.7490234375,91.9873046875
16.3867147,-96.6357421875,-93.2373046875,89.9853515625
16.4062306,-97.9541015625,-94.3115234375,88.2275390625
16.4437097,-99.6142578125,-94.7509765625,85.5419921875
16.4690408,-101.0302734375,-94.3603515625,81.7822265625
16.5079358,-98.1494140625,-94.9462890625,79.8291015625
16.5279435,-94.0966796875,-96.0205078125,76.6064453125
16.5669936,-90.1416015625,-95.9716796875,73.6279296875
16.5919521,-86.2353515625,-96.0693359375,70.0634765625
16.6190203,-83.3544921875,-97.6318359375,66.4990234375
16.6560421,-80.3271484375,-97.9248046875,63.3251953125
16.6821889,-77.5439453125,-98.0712890625,59.9072265625
16.7316261,-76.9580078125,-99.0966796875,55.9521484375
16.737398,-79.1552734375,-100.1708984375,53.0712890625
16.7771363,-80.4248046875,-100.4150390625,54.1455078125
16.7995934,-81.5966796875,-98.0712890625,60.9326171875
16.8285628,-82.7685546875,-96.8017578125,70.2099609375
16.8630391,-85.2099609375,-96.5576171875,78.9501953125
16.8915079,-86.6259765625,-95.4345703125,87.2021484375
16.9258137,-89.0185546875,-95.0439453125,93.0126953125
16.9515978,-91.3623046875,-94.7021484375,97.2607421875
16.988279,-92.5830078125,-93.8232421875,99.1162109375
17.0135591,-95.0732421875,-95.0439453125,98.6767578125
17.0479718,-97.5634765625,-96.1181640625,96.0400390625
17.0703251,-100.4443359375,-96.3134765625,94.1357421875
17.111197,-101.6650390625,-96.7041015625,92.8173828125
17.1296303,-102.6416015625,-97.0458984375,90.2294921875
17.1653884,-100.9326171875,-98.7060546875,86.4208984375
17.1917988,-97.1240234375,-98.5107421875,83.3935546875
17.2277679,-92.6318359375,-100.1708984375,79.0478515625
17.249712,-88.1396484375,-98.9501953125,74.9462890625
17.2838293,-84.9169921875,-100.0244140625,72.1630859375
17.3119492,-81.0595703125,-100.1220703125,69.0380859375
17.3466139,-77.7880859375,-100.8544921875,64.5458984375
17.3720087,-77.6416015625,-101.8310546875,60.1025390625
17.4249384,-77.6904296875,-102.1240234375,56.3427734375
17.4332038,-78.4228515625,-102.5146484375,54.5849609375
17.4718401,-79.8388671875,-102.1240234375,59.5166015625
17.4962009,-81.3525390625,-99.9267578125,69.1845703125
17.5319103,-83.3544921875,-98.9990234375,77.4853515625
17.5539257,-86.0400390625,-97.7294921875,85.6884765625
17.588979,-88.4326171875,-98.8037109375,91.7431640625
17.6140921,-90.5322265625,-96.9482421875,97.2119140625
17.650529,-92.1435546875,-96.8505859375,99.5068359375
17.6765537,-94.6337890625,-97.2412109375,97.9931640625
17.7148636,-95.9521484375,-98.3642578125,95.1123046875
17.7344273,-98.0517578125,-98.7548828125,91.5478515625
17.7733013,-100.5908203125,-99.2919921875,89.2529296875
17.7963145,-100.8837890625,-99.8779296875,86.5185546875
17.8326537,-100.8349609375,-100.1220703125,83.4423828125
17.8557842,-96.7822265625,-100.5126953125,80.2197265625
17.8921879,-92.3876953125,-101.4892578125,77.0458984375
17.912316,-89.2626953125,-102.1240234375,74.2138671875
17.9480137,-85.2587890625,-102.3193359375,69.8193359375
17.9780615,-81.5966796875,-103.4423828125,66.5478515625
18.0170436,-78.6181640625,-103.7353515625,61.9091796875
18.0363324,-77.5439453125,-104.8583984375,57.2216796875
18.0644252,-77.0556640625,-105.4443359375,54.9267578125
18.1037039,-77.9345703125,-106.1279296875,52.0458984375
18.1267082,-79.6435546875,-106.0791015625,52.5341796875
18.159709,-80.4248046875,-104.3701171875,59.9560546875
18.1878366,-82.4755859375,-103.0517578125,70.8447265625
18.2227094,-84.7705078125,-103.0517578125,79.5361328125
18.2487054,-87.0166015625,-103.3935546875,86.7626953125
18.2857007,-88.4326171875,-101.3916015625,92.1826171875
18.3077031,-90.1416015625,-101.1962890625,96.4306640625
18.3447148,-92.7783203125,-101.7822265625,95.9912109375
18.368335,-94.2431640625,-101.6845703125,93.6962890625
18.3961797,-95.0732421875,-101.8798828125,91.2060546875
18.4331837,-98.4423828125,-101.1962890625,89.4482421875
18.4581033,-99.4677734375,-100.2685546875,87.3974609375
18.4911535,-100.7861328125,-100.1220703125,85.8837890625
18.5208459,-99.2236328125,-100.8544921875,82.7099609375
18.5473526,-93.9501953125,-101.9775390625,79.8291015625
18.585844,-92.3876953125,-101.6845703125,76.9970703125
18.6108439,-89.3115234375,-101.7822265625,72.6513671875
18.6363028,-85.9423828125,-103.0029296875,68.5498046875
18.6717496,-83.8427734375,-103.9306640625,63.3251953125
18.6997664,-82.9638671875,-103.6865234375,59.9072265625
18.7284982,-82.7197265625,-104.2236328125,55.6591796875
18.76242,-83.4521484375,-105.1025390625,53.2177734375
18.7909531,-84.2333984375,-104.6630859375,54.9267578125
18.8233731,-84.6728515625,-102.7099609375,64.0087890625
18.8523865,-85.9912109375,-101.8310546875,74.7021484375
18.8802731,-87.3095703125,-99.8291015625,82.9052734375
18.9129123,-88.8232421875,-99.5849609375,90.5712890625
18.9414122,-91.3134765625,-98.3154296875,97.4072265625
18.9705074,-92.6806640625,-97.2900390625,101.0693359375
19.0035003,-94.6337890625,-95.8251953125,100.8740234375
19.0314283,-96.7333984375,-97.4853515625,99.6044921875
19.0655134,-99.2236328125,-96.8017578125,96.1865234375
19.094412,-101.7138671875,-96.3134765625,93.6474609375
19.120387,-103.4228515625,-95.9228515625,91.3037109375
19.1543955,-104.3505859375,-96.2646484375,89.5458984375
19.1845646,-103.1787109375,-96.6064453125,85.5908203125
19.2099859,-99.6630859375,-96.0693359375,82.5146484375
19.2438248,-95.9521484375,-96.0693359375,78.3642578125
19.2749266,-93.7060546875,-96.4599609375,74.8486328125
19.3035493,-90.6298828125,-96.9482421875,71.9189453125
19.3359304,-88.4326171875,-97.1923828125,67.7685546875
19.3639388,-86.6259765625,-97.4853515625,64.4482421875
19.3939496,-86.0888671875,-97.4853515625,60.6884765625
19.4258642,-86.8701171875,-97.1435546875,58.0517578125
19.4526779,-88.8720703125,-96.7041015625,59.3212890625
19.4872602,-89.8974609375,-94.2138671875,67.8662109375
19.5146396,-91.1669921875,-92.1142578125,78.4130859375
19.5455841,-91.8017578125,-91.8212890625,87.1533203125
19.57658,-94.0478515625,-89.0869140625,95.7958984375
19.6044636,-95.9521484375,-88.1591796875,102.1923828125
19.6323915,-98.3447265625,-86.7919921875,107.5634765625
19.6671046,-100.2490234375,-86.3037109375,107.2705078125
19.6960381,-101.5185546875,-87.0849609375,104.3408203125
19.7285185,-103.8623046875,-87.0849609375,101.6064453125
19.7575215,-106.4501953125,-86.7431640625,98.4326171875
19.7850153,-107.3779296875,-85.9619140625,94.9169921875
19.8186329,-109.2333984375,-86.3037109375,91.9384765625
19.8460832,-108.7939453125,-87.4267578125,87.9345703125
19.878576,-103.3251953125,-86.9384765625,84.1748046875
19.9146312,-100.1513671875,-87.5244140625,80.0732421875
19.9375913,-96.5869140625,-87.2802734375,75.9716796875
19.9654916,-91.9970703125,-87.7197265625,72.8955078125
20.0065766,-88.2373046875,-88.6962890625,68.3056640625
20.0280553,-86.1865234375,-86.8896484375,64.1064453125
20.0758214,-84.1357421875,-88.4033203125,59.3212890625
20.0878085,-84.2822265625,-88.5498046875,56.4404296875
20.1267996,-85.1123046875,-89.5751953125,55.4150390625
20.148875,-86.0400390625,-88.3056640625,62.0068359375
20.1778599,-87.2119140625,-86.1083984375,71.7724609375
20.2129095,-89.0185546875,-85.9130859375,80.9521484375
20.2399236,-90.6787109375,-84.5458984375,88.2275390625
20.279457,-93.0712890625,-84.3994140625,93.8427734375
20.2954757,-94.9755859375,-83.2763671875,97.3095703125
20.3289619,-96.7822265625,-82.2509765625,97.9931640625
20.363965,-98.8330078125,-82.9833984375,95.6982421875
20.3910255,-100.4443359375,-81.9580078125,91.4013671875
20.4281957,-102.9345703125,-81.9580078125,87.7880859375
20.4481891,-104.4970703125,-80.7861328125,84.8583984375
20.4877525,-105.9619140625,-80.6396484375,81.7822265625
20.5092066,-106.6943359375,-80.2490234375,78.1689453125
20.5456274,-104.1552734375,-80.2490234375,74.9951171875
20.5714405,-99.3701171875,-79.5166015625,70.7958984375
20.6064188,-97.3681640625,-80.3466796875,66.9873046875
20.6303445,-94.2431640625,-80.1025390625,62.4951171875
20.665103,-91.7529296875,-80.3955078125,57.6611328125
20.6945516,-89.7998046875,-80.6396484375,52.8759765625
20.7310159,-88.9697265625,-80.5908203125,48.8720703125
20.7530396,-89.7509765625,-80.5908203125,45.2587890625
20.7902065,-93.0224609375,-79.6630859375,46.5283203125
20.8139113,-94.3408203125,-77.4658203125,52.7294921875
20.8491509,-96.7333984375,-76.4892578125,62.1533203125
20.8751546,-99.1748046875,-75.5615234375,69.6728515625
20.9022109,-101.9580078125,-73.3642578125,78.2666015625
20.949913,-104.5458984375,-72.0947265625,83.5888671875
20.9684604,-107.2802734375,-70.2880859375,86.6162109375
20.9933836,-110.0634765625,-70.3857421875,86.9091796875
21.0292276,-112.4560546875,-71.3134765625,84.4677734375
21.0588942,-115.1416015625,-70.8251953125,81.4404296875
21.0833593,-117.2412109375,-70.2392578125,78.0712890625
21.1179291,-120.1220703125,-70.1416015625,76.2158203125
21.1443556,-122.4169921875,-70.5810546875,72.7978515625
21.1806721,-123.1005859375,-70.9716796875,69.8193359375
21.2063111,-120.6103515625,-70.7763671875,65.8642578125
21.2431019,-117.2412109375,-71.2158203125,62.5439453125
21.2632196,-114.8974609375,-71.4599609375,57.7099609375
21.2982166,-111.8212890625,-71.6064453125,54.0966796875
21.3249737,-109.8193359375,-72.6806640625,50.3369140625
21.3613669,-108.5009765625,-73.0712890625,46.3818359375
21.386818,-107.1337890625,-73.1201171875,43.8916015625
21.4216951,-108.4521484375,-73.0712890625,44.8681640625
21.4428472,-109.4287109375,-72.6806640625,50.4833984375
21.4785919,-110.1611328125,-70.5810546875,59.7119140625
21.5057671,-111.1376953125,-70.4833984375,67.9638671875
21.5433124,-112.3583984375,-69.4580078125,74.5556640625
21.5643735,-113.4814453125,-68.7255859375,80.1220703125
21.5999466,-114.7021484375,-69.3115234375,84.0771484375
21.6279108,-116.2646484375,-68.8720703125,85.2001953125
21.6645533,-117.4365234375,-69.5556640625,82.6123046875
21.6889241,-118.9990234375,-70.2880859375,79.2431640625
21.7242559,-119.7802734375,-70.4833984375,76.1669921875
21.7478325,-121.7333984375,-70.5810546875,74.4091796875
21.7845113,-123.2958984375,-71.5576171875,70.8935546875
21.8088308,-123.3447265625,-71.6552734375,67.5732421875
21.844681,-120.1708984375,-72.8271484375,65.6201171875
21.8704604,-115.9228515625,-73.2666015625,62.0556640625
21.9066096,-112.1630859375,-74.4384765625,58.5400390625
21.9266909,-107.9638671875,-73.8525390625,54.6826171875
21.9635951,-105.2294921875,-74.8779296875,51.7529296875
21.9878388,-102.2998046875,-75.4150390625,48.3349609375
22.0241771,-100.5419921875,-75.7568359375,44.6240234375
22.0507459,-100.0048828125,-76.0009765625,42.5244140625
22.0864138,-101.3720703125,-75.8544921875,47.3583984375
22.1124806,-102.0068359375,-74.4873046875,56.3427734375
22.1485202,-103.6181640625,-74.6337890625,64.9365234375
22.1700862,-104.8388671875,-73.3642578125,71.5771484375
22.2068237,-106.4501953125,-73.5107421875,78.2666015625
22.2297265,-107.6708984375,-72.6318359375,83.2470703125
22.2665321,-108.7939453125,-73.5107421875,85.9326171875
22.2901658,-111.0400390625,-73.7548828125,86.0791015625
22.3249767,-112.0654296875,-75.4150390625,82.9052734375
22.3519828,-113.2861328125,-76.1962890625,80.3173828125
22.3894071,-115.1416015625,-77.1240234375,78.7060546875
22.4104,-115.8251953125,-77.4658203125,76.1181640625
22.4461249,-117.1435546875,-77.9541015625,74.5556640625
22.4717867,-116.9482421875,-79.3701171875,71.1376953125
22.5088101,-112.3583984375,-79.7607421875,68.1103515625
22.5368033,-107.6220703125,-80.9814453125,64.8388671875
22.5623263,-104.1552734375,-81.6650390625,61.8603515625
22.5995142,-99.8095703125,-81.6650390625,58.2470703125
22.6223507,-95.5126953125,-83.0810546875,55.5126953125
22.6567951,-93.1201171875,-84.3505859375,51.8017578125
22.683623,-90.8251953125,-85.4736328125,48.8232421875
22.7194939,-90.9228515625,-86.8896484375,47.3095703125
22.7399998,-91.7041015625,-85.2783203125,52.3876953125
22.7756502,-91.8505859375,-84.8388671875,60.9326171875
22.8034257,-92.9736328125,-84.8876953125,68.1591796875
22.8425477,-93.7060546875,-84.3017578125,75.3857421875
22.8639936,-95.4638671875,-84.6435546875,80.8056640625
22.9019956,-96.5869140625,-85.1318359375,84.7119140625
22.9231374,-98.4423828125,-84.8388671875,87.2998046875
22.959479,-99.6142578125,-86.1572265625,85.8837890625
22.9829268,-101.3720703125,-87.3779296875,83.5888671875
23.0203768,-102.8857421875,-88.1103515625,81.6845703125
23.0459397,-103.7646484375,-88.4033203125,77.8759765625
23.0801841,-105.8154296875,-89.2333984375,76.9482421875
23.1061799,-107.3779296875,-89.9169921875,74.1162109375
23.1436694,-106.4013671875,-90.1123046875,71.2841796875
23.1645698,-102.9833984375,-91.9677734375,68.6474609375
23.2006125,-97.9052734375,-92.3095703125,64.8876953125
23.2238455,-93.8037109375,-93.1396484375,61.6650390625
23.2612767,-90.4345703125,-94.0673828125,58.8818359375
23.286769,-86.6259765625,-94.8486328125,55.6103515625
23.3231778,-83.8427734375,-95.2392578125,51.8017578125
23.3467655,-83.1103515625,-96.5087890625,48.8232421875
23.3767448,-83.9892578125,-97.0458984375,46.8212890625
23.411744,-85.4541015625,-95.3369140625,50.5322265625
23.4378788,-86.7236328125,-94.4091796875,57.4658203125
23.4658576,-88.3837890625,-93.7744140625,64.9365234375
23.5007887,-90.6298828125,-93.4326171875,71.0400390625
23.5291673,-93.4130859375,-92.7490234375,76.8505859375
23.5561169,-95.2685546875,-92.6513671875,80.1708984375
23.593545,-97.6611328125,-92.2607421875,82.6611328125
23.6174772,-100.3466796875,-93.2373046875,81.1962890625
23.6530203,-102.1044921875,-94.3603515625,79.4873046875
23.6805157,-104.1552734375,-94.1162109375,78.2666015625
23.710491,-106.6943359375,-94.4091796875,77.0947265625
23.7370304,-108.4033203125,-95.2880859375,74.6044921875
23.7691251,-110.0146484375,-95.8740234375,72.4072265625
23.8030486,-111.3818359375,-96.8505859375,70.5029296875
23.8270329,-108.0126953125,-97.5341796875,67.1337890625
23.8613225,-103.9599609375,-98.7060546875,64.7900390625
23.8891519,-99.9560546875,-98.3154296875,61.1767578125
23.922041,-96.7822265625,-100.0732421875,59.1748046875
23.9521065,-93.9013671875,-100.5126953125,55.3173828125
23.9791086,-91.0205078125,-101.7822265625,52.5341796875
24.0132219,-89.2626953125,-102.4658203125,49.9951171875
24.0390575,-89.6044921875,-103.0517578125,50.4833984375
24.0731296,-90.1416015625,-102.0751953125,56.7333984375
24.102054,-90.7763671875,-100.7568359375,64.1064453125
24.1300801,-91.4111328125,-100.0732421875,72.0166015625
24.1580883,-92.1435546875,-99.1943359375,77.9736328125
24.1932463,-93.9501953125,-99.6337890625,83.1982421875
24.2192707,-94.8779296875,-98.3154296875,86.9091796875
24.2593813,-97.2705078125,-99.0966796875,87.7880859375
24.2796586,-98.9306640625,-98.6572265625,86.2744140625
24.309331,-100.8837890625,-99.9755859375,84.4189453125
24.3630099,-102.7880859375,-99.5849609375,82.6611328125
24.381945,-105.3759765625,-100.3662109375,81.0986328125
24.4049611,-107.5244140625,-99.8779296875,79.0966796875
24.4339504,-109.6240234375,-101.0986328125,76.2646484375
24.4598443,-109.1845703125,-101.2451171875,74.3603515625
24.4908252,-105.8154296875,-101.6357421875,71.7236328125
24.5238143,-102.7392578125,-101.8310546875,67.2802734375
24.5528261,-100.1513671875,-103.2958984375,64.9853515625
24.5868261,-97.6123046875,-104.0283203125,60.4443359375
24.6139353,-95.7568359375,-104.7119140625,57.3681640625
24.6418956,-94.7314453125,-105.3466796875,53.8525390625
24.6738809,-93.6083984375,-105.3466796875,51.5576171875
24.7028021,-93.9501953125,-105.0048828125,53.8525390625
24.7358491,-95.1220703125,-103.6865234375,61.4697265625
24.7637768,-96.5380859375,-102.9541015625,69.0380859375
24.7941799,-97.1728515625,-101.6845703125,75.7763671875
24.8263523,-97.6123046875,-101.1474609375,81.8310546875
24.8623069,-99.8095703125,-100.2685546875,87.0556640625
24.8873153,-101.1767578125,-99.6826171875,90.4248046875
24.9243002,-103.3740234375,-99.6337890625,92.1337890625
24.9444507,-104.9853515625,-99.6826171875,89.3017578125
24.975909,-106.2060546875,-100.3662109375,87.0556640625
25.0074577,-108.6962890625,-100.7080078125,84.2236328125
25.0358185,-110.9423828125,-100.4150390625,82.1728515625
25.0719016,-113.2861328125,-101.0986328125,79.9755859375
25.0971893,-115.2392578125,-101.5380859375,77.7783203125
25.1347333,-113.2861328125,-102.2216796875,74.1162109375
25.1590794,-109.7705078125,-102.1728515625,70.6494140625
25.1957032,-106.3525390625,-102.1728515625,66.9873046875
25.2166934,-103.6181640625,-103.1982421875,64.4482421875
25.2502104,-100.3466796875,-103.3447265625,61.0302734375
25.2851401,-97.2705078125,-103.6376953125,56.9775390625
25.3051388,-95.3662109375,-104.2236328125,53.2666015625
25.3422883,-93.7060546875,-104.7119140625,50.4345703125
25.3659807,-94.4384765625,-104.6630859375,50.9716796875
25.4061006,-95.0732421875,-103.0029296875,57.2216796875
25.4290182,-95.9521484375,-101.3916015625,65.0341796875
25.4666583,-96.5869140625,-100.8544921875,72.6025390625
25.4890369,-96.9775390625,-99.7802734375,78.5595703125
25.5243523,-98.6376953125,-98.8037109375,83.6865234375
25.5454713,-99.8095703125,-97.8759765625,87.3486328125
25.5864749,-101.5673828125,-97.4853515625,87.4951171875
25.6080597,-102.9833984375,-96.4599609375,85.1513671875
25.6425235,-104.9365234375,-96.7529296875,81.9287109375
25.6774664,-106.8408203125,-95.7275390625,78.9013671875
25.6986091,-108.7939453125,-95.9716796875,77.4365234375
25.7347761,-110.5517578125,-94.8974609375,74.7998046875
25.7626562,-112.6513671875,-94.8974609375,71.7236328125
25.798042,-112.8466796875,-94.9462890625,68.1103515625
25.8210392,-108.7451171875,-94.4091796875,65.0830078125
25.8584186,-105.9130859375,-94.2626953125,61.9580078125
25.8789175,-102.6416015625,-94.2626953125,57.8564453125
25.9199748,-98.9306640625,-94.1162109375,53.5595703125
25.9415589,-97.1240234375,-93.9697265625,50.4833984375
25.9775739,-95.1708984375,-94.4091796875,46.2353515625
26.0013836,-93.6083984375,-93.6279296875,42.5732421875
26.0388142,-94.4873046875,-94.4091796875,42.1826171875
26.0618324,-96.2451171875,-92.7978515625,46.8212890625
26.0993485,-97.6611328125,-91.1376953125,54.5361328125
26.1186994,-98.1982421875,-89.9658203125,63.1787109375
26.1674835,-100.9326171875,-87.9638671875,70.6005859375
26.1881481,-102.3974609375,-86.5966796875,75.5322265625
26.2145617,-104.4970703125,-84.3017578125,79.7802734375
26.251535,-106.8896484375,-84.0087890625,81.1474609375
26.2727198,-108.3056640625,-84.5947265625,79.0966796875
26.3083398,-110.9912109375,-84.1064453125,75.7763671875
26.3343859,-112.4072265625,-83.2763671875,72.8955078125
26.3613418,-114.0673828125,-82.9833984375,70.5029296875
26.3962606,-116.5087890625,-82.3974609375,67.9638671875
26.423362,-118.6083984375,-82.5927734375,65.6201171875
26.4603634,-119.2919921875,-82.9833984375,61.9091796875
26.4863195,-116.4111328125,-82.4951171875,58.8818359375
26.53033,-112.3583984375,-82.2509765625,56.4404296875
26.5430846,-108.4521484375,-82.5927734375,52.9736328125
26.5793614,-104.8876953125,-81.9580078125,49.4580078125
26.6024228,-101.2255859375,-83.4228515625,45.1123046875
26.6413198,-98.9794921875,-83.6669921875,42.3291015625
26.666075,-96.9287109375,-83.6669921875,39.0576171875
26.7006352,-97.1240234375,-83.9599609375,39.5458984375
26.7262129,-98.1494140625,-81.9091796875,45.8935546875
26.7641143,-99.0771484375,-79.6630859375,55.8544921875
26.7830433,-99.9560546875,-78.2958984375,64.7412109375
26.8162592,-101.6162109375,-77.1240234375,72.6513671875
26.845224,-103.2275390625,-75.1220703125,77.5830078125
26.8797522,-104.3994140625,-74.1455078125,81.8310546875
26.9073372,-106.6455078125,-73.0712890625,83.2958984375
26.9438441,-108.4521484375,-73.0712890625,79.4873046875
26.9689737,-110.8935546875,-72.6318359375,76.4599609375
27.0078019,-112.6513671875,-71.8017578125,72.9443359375
27.0260738,-114.7509765625,-72.1435546875,70.2587890625
27.060065,-116.1181640625,-72.6806640625,67.1826171875
27.0865648,-118.4130859375,-72.5341796875,64.2529296875
27.1209459,-119.2431640625,-72.2412109375,60.3466796875
27.1499556,-117.0458984375,-72.5830078125,56.6845703125
27.1879451,-113.2373046875,-73.1689453125,53.4619140625
27.2114612,-109.4775390625,-72.7783203125,50.0927734375
27.2378347,-106.1572265625,-73.7060546875,46.4306640625
27.27282,-103.9599609375,-74.1455078125,42.4267578125
27.3001301,-100.8837890625,-74.8779296875,39.1064453125
27.3364065,-99.3212890625,-74.7802734375,35.4931640625
27.3584208,-98.1494140625,-74.0966796875,35.4931640625
27.3964071,-99.8095703125,-73.3154296875,43.0126953125
27.4204211,-100.0537109375,-71.2646484375,51.6552734375
27.4483838,-100.8837890625,-70.2392578125,60.3466796875
27.4843898,-102.0556640625,-69.1162109375,67.4267578125
27.507796,-102.9833984375,-68.5302734375,72.9931640625
27.5448444,-104.6435546875,-67.4072265625,76.8994140625
27.5698664,-105.9619140625,-67.5048828125,78.9990234375
27.6059144,-107.5244140625,-67.1142578125,76.4111328125
27.631495,-108.5986328125,-67.7001953125,73.1396484375
27.6679191,-110.4052734375,-67.6025390625,69.2822265625
27.6900847,-112.2607421875,-66.5771484375,65.5712890625
27.7269993,-113.9697265625,-67.1142578125,62.2509765625
27.7494666,-115.2880859375,-67.7001953125,58.2958984375
27.7852934,-116.8017578125,-67.9443359375,54.3896484375
27.8107014,-114.6044921875,-67.4560546875,50.1416015625
27.8475017,-110.4541015625,-69.3603515625,46.0888671875
27.8739312,-106.3525390625,-69.3603515625,42.1337890625
27.9086396,-103.5693359375,-70.8740234375,37.5439453125
27.9306995,-99.7119140625,-70.9228515625,33.9306640625
27.9660517,-97.3193359375,-71.1669921875,30.3662109375
27.9931241,-94.7802734375,-71.2158203125,26.2646484375
28.0272117,-94.4384765625,-72.8759765625,24.3603515625
28.0553789,-95.7568359375,-71.1669921875,28.9501953125
28.0837712,-96.8310546875,-71.1181640625,38.6181640625
28.1197099,-97.6123046875,-68.8232421875,48.0419921875
28.1436214,-99.4189453125,-69.8486328125,55.9033203125
28.1766526,-101.1767578125,-69.1650390625,62.6416015625
28.2257778,-102.2021484375,-68.7255859375,67.0361328125
28.2316996,-104.0087890625,-68.9208984375,68.6474609375
28.2694511,-104.9853515625,-69.4091796875,66.5966796875
28.2954061,-107.0361328125,-70.4833984375,62.2509765625
28.3233959,-108.4521484375,-70.2392578125,58.1494140625
28.3663001,-109.7216796875,-70.7275390625,55.6103515625
28.3872953,-111.5283203125,-70.2392578125,52.8759765625
28.4134292,-114.0673828125,-71.2158203125,49.5556640625
28.4493343,-115.9716796875,-71.0205078125,46.7724609375
28.4784802,-115.6787109375,-72.0947265625,43.3544921875
28.5035768,-111.4794921875,-71.6552734375,39.2041015625
28.5380106,-107.6708984375,-73.2177734375,35.4931640625
28.5660674,-103.7158203125,-73.6572265625,31.6845703125
28.5944605,-100.4443359375,-75.1708984375,28.2666015625
28.6270796,-98.1982421875,-75.0732421875,25.2880859375
28.6560761,-95.8056640625,-76.0986328125,21.7724609375
28.6880662,-94.0478515625,-76.5380859375,20.6005859375
28.7236379,-94.7802734375,-75.1220703125,26.0205078125
28.7461461,-96.0009765625,-74.1455078125,35.1025390625
28.7821416,-97.1728515625,-73.2177734375,43.6962890625
28.8076864,-98.3935546875,-72.5341796875,49.9462890625
28.8361307,-99.7119140625,-72.4365234375,55.4150390625
28.8670625,-101.3720703125,-71.8994140625,59.5654296875
28.8992027,-102.9345703125,-72.1923828125,60.8349609375
28.9265956,-105.3759765625,-72.3388671875,57.3193359375
28.959587,-107.0361328125,-73.1689453125,53.6572265625
28.9865974,-109.4775390625,-73.3642578125,49.7998046875
29.0215911,-110.8447265625,-73.4130859375,46.7724609375
29.0477459,-113.5302734375,-73.4619140625,43.9892578125
29.0772255,-116.2646484375,-74.4384765625,41.4501953125
29.112756,-117.7783203125,-74.3896484375,37.9345703125
29.1401935,-118.5595703125,-75.1708984375,33.6376953125
29.1673521,-114.7998046875,-76.3916015625,30.2197265625
29.1991966,-111.5771484375,-77.2216796875,26.6064453125
29.2301692,-109.1357421875,-77.8076171875,22.7978515625
29.26109,-106.3037109375,-77.5634765625,18.9404296875
29.2902118,-103.4228515625,-78.3935546875,15.4248046875
29.3192491,-101.1767578125,-79.6142578125,14.3994140625
29.3511907,-100.2978515625,-79.4189453125,15.5224609375
29.381204,-100.6884765625,-78.7353515625,23.2373046875
29.4093386,-101.6162109375,-77.5634765625,31.4892578125
29.4418415,-102.2021484375,-76.8310546875,39.6923828125
29.4705753,-102.9833984375,-77.6123046875,45.6005859375
29.5000457,-103.9599609375,-76.6357421875,51.2646484375
29.5310655,-105.5712890625,-76.6357421875,54.0478515625
29.5625958,-106.5966796875,-76.3427734375,54.0478515625
29.5930532,-108.2080078125,-76.7822265625,51.2158203125
29.6220563,-109.0869140625,-77.2705078125,47.7978515625
29.6525586,-111.1376953125,-78.7841796875,44.8681640625
29.6830696,-111.5771484375,-78.3935546875,42.2314453125
29.7126002,-114.1650390625,-79.6630859375,38.4228515625
29.7410136,-116.0205078125,-80.2001953125,35.2490234375
29.7728012,-116.6552734375,-81.0791015625,31.6845703125
29.8017351,-115.0439453125,-82.1533203125,28.3154296875
29.8347356,-110.6005859375,-82.2509765625,24.3603515625
29.8647668,-106.5478515625,-84.0576171875,21.4306640625
29.8927685,-102.9833984375,-84.1064453125,17.4755859375
29.9197627,-99.5654296875,-85.1318359375,15.0830078125
29.9557756,-96.0009765625,-84.6435546875,11.5185546875
29.9817335,-93.4619140625,-86.6455078125,9.1259765625
30.0147217,-91.7529296875,-85.5224609375,13.9599609375
30.0448122,-92.0458984375,-84.6435546875,22.4072265625
30.0823448,-93.2177734375,-83.9111328125,31.8310546875
30.104807,-93.9990234375,-83.5205078125,40.2294921875
30.1320445,-93.9013671875,-82.7880859375,46.2841796875
30.1689432,-95.1708984375,-82.3974609375,50.8251953125
30.1968987,-96.0986328125,-82.6904296875,54.1455078125
30.2248623,-97.7099609375,-83.0810546875,53.5107421875
30.256899,-99.5654296875,-84.3994140625,50.5810546875
30.2938865,-101.5185546875,-85.2294921875,48.0419921875
30.3137596,-103.0322265625,-85.4248046875,46.0400390625
30.3467961,-104.5947265625,-86.3037109375,42.2802734375
30.3784888,-106.7431640625,-86.2548828125,39.2041015625
30.413853,-108.7451171875,-86.7431640625,36.6650390625
30.4374598,-108.7451171875,-88.2568359375,33.2958984375
30.4665442,-107.7197265625,-87.6708984375,30.9033203125
30.4976113,-103.7158203125,-88.5009765625,27.5341796875
30.5317389,-99.8095703125,-89.4287109375,24.5068359375
30.5550592,-95.8544921875,-90.3076171875,20.9912109375
30.5890913,-92.1923828125,-91.3330078125,18.6474609375
30.6164237,-89.6044921875,-90.8447265625,16.0595703125
30.6524981,-87.3583984375,-91.3818359375,13.7158203125
30.678879,-87.0654296875,-90.9423828125,18.2568359375
30.7129739,-87.7490234375,-89.7705078125,26.4111328125
30.7390077,-88.5302734375,-87.3779296875,34.8095703125
30.7744139,-89.7021484375,-88.5009765625,42.8173828125
30.7966217,-91.0693359375,-87.8173828125,48.4814453125
30.8338683,-92.7783203125,-87.5244140625,53.5595703125
30.8600758,-94.2431640625,-87.9638671875,55.3662109375
30.8963859,-96.5380859375,-88.1103515625,54.9755859375
30.9195526,-99.0771484375,-88.7939453125,53.1201171875
30.9505989,-100.4931640625,-89.2822265625,49.4091796875
30.9858499,-103.2275390625,-89.6240234375,48.7255859375
31.0082598,-104.6923828125,-89.7216796875,47.2119140625
31.0523144,-107.5732421875,-90.6005859375,45.2099609375
31.0718389,-109.8193359375,-91.3330078125,43.0126953125
31.1141752,-111.0400390625,-91.8701171875,40.4248046875
31.128234,-110.0634765625,-91.7724609375,37.9345703125
31.1644534,-106.2548828125,-92.1142578125,35.2001953125
31.189743,-102.0068359375,-92.9931640625,32.6123046875
31.2389496,-97.7099609375,-93.8232421875,28.9990234375
31.2590225,-94.8779296875,-94.6533203125,25.4345703125
31.2810396,-91.0205078125,-94.4580078125,23.3837890625
31.3315216,-89.0673828125,-94.4580078125,24.5556640625
31.3525286,-87.5048828125,-93.1884765625,31.6845703125
31.3714439,-89.2138671875,-91.7724609375,40.4736328125
31.4110196,-89.8486328125,-90.9912109375,48.6767578125
31.4300506,-91.3134765625,-90.3564453125,55.7080078125
31.4643751,-92.9736328125,-90.1611328125,59.7607421875
31.4923874,-94.1455078125,-89.3798828125,62.7880859375
31.5265189,-96.3916015625,-89.3310546875,64.0576171875
31.5523173,-97.5634765625,-89.9169921875,61.1279296875
31.5888531,-100.0537109375,-90.8447265625,58.2470703125
31.6113549,-101.6162109375,-91.1376953125,56.5869140625
31.6464103,-102.9833984375,-92.2607421875,54.4873046875
31.6739168,-105.4736328125,-92.0166015625,52.3876953125
31.7097258,-108.0126953125,-92.7001953125,49.1650390625
31.7302599,-108.9892578125,-93.4814453125,46.2841796875
31.7653473,-109.4287109375,-93.3837890625,43.5009765625
31.7927822,-105.9619140625,-94.7021484375,40.4736328125
31.8289423,-102.2509765625,-94.1650390625,37.7880859375
31.8545694,-99.0283203125,-94.8486328125,35.0537109375
31.8913678,-95.8544921875,-94.7998046875,31.6845703125
31.9146416,-92.6806640625,-95.8251953125,29.0478515625
31.9551796,-90.2392578125,-95.6298828125,30.0732421875
31.9778399,-88.0908203125,-94.7021484375,35.6396484375
32.005356,-87.8955078125,-92.5537109375,45.2587890625
32.0405445,-88.9208984375,-92.0654296875,53.7548828125
32.0659865,-89.6533203125,-91.2353515625,60.8349609375
32.1011736,-90.6787109375,-90.1123046875,66.2548828125
32.1217575,-92.0947265625,-88.3544921875,70.4541015625
32.1555159,-93.7548828125,-89.0869140625,71.9677734375
32.185686,-96.4892578125,-88.9404296875,70.5517578125
32.2219474,-98.0517578125,-88.9404296875,66.4501953125
32.2465663,-99.2724609375,-89.6728515625,64.1552734375
32.2820311,-101.7626953125,-88.3544921875,61.4208984375
32.308901,-103.9111328125,-89.3798828125,59.7119140625
32.3445826,-105.7177734375,-89.3310546875,57.6611328125
32.364571,-107.3291015625,-89.7705078125,55.0732421875
32.4014261,-108.4521484375,-90.0634765625,52.1923828125
32.428285,-106.7431640625,-91.1376953125,48.8720703125
32.4632988,-102.5927734375,-91.1376953125,45.3076171875
32.4888218,-98.2470703125,-91.3818359375,42.1826171875
32.5361896,-94.6826171875,-90.7470703125,38.7158203125
32.557804,-91.1181640625,-91.7724609375,35.7373046875
32.5768698,-87.2119140625,-92.3583984375,33.7841796875
32.6124909,-84.8193359375,-91.2353515625,37.8369140625
32.6402604,-82.9638671875,-90.1123046875,46.6748046875
32.6772014,-83.6474609375,-88.7939453125,55.8544921875
32.6996907,-83.1591796875,-87.9638671875,62.5439453125
32.7305247,-84.1357421875,-86.5966796875,67.6220703125
32.7681097,-84.7705078125,-86.0107421875,71.8701171875
32.7871009,-86.3818359375,-84.9853515625,74.5556640625
32.824157,-87.3583984375,-84.2529296875,73.6767578125
32.8512711,-89.4580078125,-84.8388671875,70.5517578125
32.8884884,-90.6298828125,-84.7412109375,67.8662109375
32.9112317,-92.4365234375,-84.7412109375,65.8154296875
32.9468141,-93.2666015625,-84.4482421875,62.2998046875
32.9712148,-94.9267578125,-84.1064453125,59.6142578125
33.0079937,-97.0751953125,-84.3994140625,57.6123046875
33.03041,-97.8564453125,-84.1064453125,54.1943359375
33.0706463,-97.7587890625,-85.0830078125,50.8251953125
33.0906319,-95.2685546875,-84.7412109375,47.7490234375
33.1252469,-90.7763671875,-85.9619140625,44.1845703125
33.1513759,-87.1142578125,-85.2294921875,40.3759765625
33.1867782,-84.2333984375,-85.3271484375,37.1044921875
33.2143018,-80.8154296875,-85.3271484375,33.9306640625
33.2437841,-77.8369140625,-86.2060546875,33.6865234375
33.27023,-76.0791015625,-84.2529296875,37.9833984375
33.3082863,-76.1767578125,-83.8134765625,47.2607421875
33.332937,-77.1533203125,-81.6650390625,54.6337890625
33.3685996,-78.2275390625,-81.2744140625,61.9580078125
33.3936051,-79.7900390625,-79.3701171875,66.0595703125
33.4300825,-81.5966796875,-78.5400390625,71.1376953125
33.4520886,-83.3056640625,-77.3681640625,72.4560546875
33.4876455,-85.6005859375,-77.7099609375,70.8447265625
33.5141411,-88.1396484375,-76.9775390625,68.8916015625
33.5496545,-90.3369140625,-77.1240234375,65.5224609375
33.5737078,-92.2412109375,-76.8310546875,62.4462890625
33.6032073,-94.1943359375,-76.8310546875,60.9326171875
33.6383576,-96.1962890625,-76.6357421875,58.1982421875
33.6633756,-98.4423828125,-76.4892578125,54.4384765625
33.6973188,-99.9072265625,-76.9287109375,52.2412109375
33.7264711,-99.6630859375,-76.2451171875,48.9697265625
33.7550534,-96.3916015625,-76.0986328125,46.0400390625
33.7834545,-92.9736328125,-77.2216796875,42.1826171875
33.8184687,-89.7021484375,-76.7822265625,39.2529296875
33.8444691,-86.0400390625,-77.5634765625,35.7861328125
33.8805313,-83.2568359375,-77.6123046875,33.7353515625
33.9054729,-81.6943359375,-76.6357421875,36.6650390625
33.9384022,-80.9619140625,-74.3408203125,43.4521484375
33.9668971,-81.7919921875,-74.0478515625,51.5576171875
33.9969104,-83.0615234375,-72.4853515625,59.7607421875
34.0284096,-84.1845703125,-71.4599609375,66.3525390625
34.0583633,-85.9423828125,-70.1416015625,71.5283203125
34.0867403,-87.3095703125,-68.9208984375,75.3857421875
34.1156936,-88.4814453125,-68.2373046875,76.5576171875
34.1477249,-90.3369140625,-69.1650390625,74.0185546875
34.1756618,-91.8017578125,-68.6279296875,71.1376953125
34.2088184,-93.7060546875,-69.1162109375,69.4287109375
34.237328,-95.7080078125,-68.3349609375,66.8408203125
34.2656296,-96.8798828125,-68.9697265625,64.3505859375
34.299783,-99.1748046875,-68.6767578125,62.5927734375
34.3286818,-100.7861328125,-69.6044921875,60.2490234375
34.3616649,-101.2255859375,-69.2626953125,56.7822265625
34.3877191,-99.9560546875,-69.7021484375,53.9501953125
34.4187026,-95.8056640625,-69.7998046875,50.8251953125
34.4468456,-92.1435546875,-70.9716796875,47.3583984375
34.4809042,-88.6767578125,-70.9716796875,43.4033203125
34.5127204,-85.1123046875,-71.0693359375,41.4990234375
34.5412439,-83.3544921875,-71.6552734375,40.9130859375
34.5711086,-81.0107421875,-70.6298828125,46.1376953125
34.5980211,-80.0830078125,-68.8232421875,54.6337890625
34.6320378,-81.5966796875,-67.2607421875,62.6904296875
34.6601859,-83.2568359375,-66.2841796875,70.6494140625
34.7100843,-84.5751953125,-65.3564453125,77.5341796875
34.7303275,-85.6494140625,-63.7939453125,81.0986328125
34.7483351,-86.3818359375,-63.8916015625,83.4912109375
34.7823232,-87.9931640625,-63.8427734375,82.1240234375
34.8113035,-89.9951171875,-64.2822265625,80.2197265625
34.8442926,-91.8505859375,-65.1611328125,77.3876953125
34.87223,-93.7548828125,-65.0146484375,74.9951171875
34.9023126,-94.4384765625,-64.9658203125,72.7001953125
34.9303073,-96.3427734375,-65.1123046875,69.2822265625
34.9628087,-98.3447265625,-65.3076171875,67.0849609375
34.9887306,-100.1025390625,-66.7724609375,63.9111328125
35.0237016,-99.9072265625,-67.6025390625,60.5419921875
35.0499693,-96.8310546875,-68.0419921875,57.6123046875
35.0810487,-92.9736328125,-67.7490234375,54.4384765625
35.1151355,-88.1396484375,-69.6533203125,51.1181640625
35.1439221,-85.5517578125,-70.2392578125,47.1630859375
35.1730038,-80.7666015625,-70.5810546875,44.5751953125
35.2061163,-78.6669921875,-71.0205078125,45.1611328125
35.2337133,-76.3232421875,-69.2138671875,51.2158203125
35.2620608,-75.2490234375,-67.8955078125,58.5888671875
35.2931008,-77.4951171875,-66.6748046875,64.9365234375
35.3364712,-77.8369140625,-65.8935546875,71.3818359375
35.357235,-79.3505859375,-64.9658203125,76.8505859375
35.3938554,-81.2548828125,-65.0634765625,80.4150390625
35.4112193,-83.2080078125,-64.4287109375,82.4658203125
35.4472488,-85.3564453125,-64.8193359375,80.1220703125
35.4747062,-87.4560546875,-65.4052734375,77.6318359375
35.5065973,-89.9462890625,-66.5283203125,73.6767578125
35.5425771,-92.3876953125,-66.1865234375,71.3818359375
35.5625941,-94.1455078125,-67.5537109375,68.9892578125
35.5946092,-97.0263671875,-67.7001953125,66.1083984375
35.6265768,-99.0283203125,-68.7255859375,62.6904296875
35.6695936,-100.6884765625,-69.1650390625,59.1748046875
35.7035862,-101.2255859375,-69.7998046875,55.4638671875
35.7238672,-97.6123046875,-70.6298828125,52.8271484375
35.7438744,-93.4130859375,-71.3623046875,49.7998046875
35.7798712,-90.2392578125,-71.9482421875,45.9423828125
35.8076734,-85.1123046875,-72.8271484375,42.3779296875
35.8456075,-81.9873046875,-74.0966796875,39.5947265625
35.8690249,-78.9599609375,-74.3896484375,40.7666015625
35.8957009,-77.0068359375,-72.9736328125,46.3330078125
35.9301465,-77.5927734375,-72.2900390625,54.0478515625
35.9587401,-80.2294921875,-71.6064453125,60.5419921875
35.9956824,-80.4248046875,-70.7763671875,67.0361328125
36.0206321,-82.6220703125,-69.3603515625,70.9912109375
36.0471554,-84.2822265625,-70.0927734375,75.1904296875
36.0831828,-86.0888671875,-68.6279296875,76.1181640625
36.1092288,-88.3837890625,-69.9462890625,73.7255859375
36.1460468,-91.3623046875,-69.9462890625,70.1611328125
36.1711802,-94.4873046875,-69.6044921875,68.5986328125
36.2003048,-96.7822265625,-70.0927734375,66.1083984375
36.2292931,-98.9306640625,-70.5322265625,63.7158203125
36.2678442,-101.3232421875,-71.8017578125,61.1279296875
36.2903382,-104.5458984375,-72.0458984375,58.4423828125
36.3278211,-105.8642578125,-72.6318359375,54.7802734375
36.3520767,-106.4501953125,-73.6572265625,51.6552734375
36.3839786,-103.4228515625,-73.8037109375,48.1884765625
36.4079238,-99.3212890625,-74.8291015625,44.3310546875
36.4436353,-96.3916015625,-76.0498046875,40.2294921875
36.4698982,-93.4619140625,-76.4404296875,36.7626953125
36.5059396,-91.1669921875,-77.2705078125,34.6630859375
36.5309512,-88.7255859375,-76.6845703125,37.2021484375
36.5679357,-87.2607421875,-76.3916015625,44.3798828125
36.5939191,-87.2119140625,-75.7568359375,52.3388671875
36.6288997,-88.4326171875,-74.6337890625,58.0029296875
36.6497762,-88.7744140625,-74.7802734375,63.3251953125
36.6854882,-88.9208984375,-73.9013671875,67.5732421875
36.7126186,-89.7509765625,-73.2666015625,69.7216796875
36.7452158,-91.0205078125,-72.7294921875,69.0869140625
36.7726367,-93.3154296875,-74.0478515625,66.7919921875
36.8096172,-94.9267578125,-74.1943359375,64.3017578125
36.8356487,-96.9287109375,-75.5126953125,62.2509765625
36.8626025,-99.1259765625,-75.5126953125,59.5654296875
36.8994649,-101.1767578125,-75.6103515625,56.0498046875
36.9235801,-103.5205078125,-75.9033203125,52.8759765625
36.9531466,-105.4248046875,-77.4169921875,49.7021484375
36.9920471,-107.7197265625,-78.0029296875,46.6748046875
37.0136088,-106.6455078125,-78.6376953125,43.4033203125
37.0486001,-102.4462890625,-78.8330078125,39.5458984375
37.0707022,-99.7607421875,-79.7607421875,36.1767578125
37.1082441,-97.1728515625,-80.5419921875,32.2216796875
37.1310982,-93.3154296875,-81.0302734375,28.7060546875
37.1711492,-90.1416015625,-81.2255859375,25.8740234375
37.1945377,-88.2373046875,-81.6650390625,29.1455078125
37.2276077,-86.2353515625,-79.5654296875,35.0048828125
37.2566823,-87.4072265625,-79.3212890625,41.5966796875
37.2857145,-87.7490234375,-78.7353515625,46.9677734375
37.3147608,-88.3837890625,-78.4912109375,52.0947265625
37.3528292,-89.8486328125,-77.9541015625,55.9521484375
37.3741643,-90.6787109375,-78.0517578125,58.2470703125
37.4113436,-91.3134765625,-78.5400390625,57.1240234375
37.4373003,-92.6318359375,-80.0537109375,55.0732421875
37.4739131,-94.7314453125,-79.8583984375,52.7783203125
37.4982962,-96.6357421875,-80.3955078125,50.8740234375
37.5262895,-98.9794921875,-80.9326171875,48.2373046875
37.5612882,-99.9072265625,-82.7880859375,46.2841796875
37.5867091,-101.7138671875,-82.0068359375,42.3291015625
37.6217165,-103.9599609375,-84.0087890625,37.8857421875
37.6442149,-104.2529296875,-84.2529296875,36.0791015625
37.6842223,-104.2529296875,-85.3759765625,31.9775390625
37.7061755,-100.3955078125,-86.5478515625,29.1943359375
37.7452683,-95.9521484375,-87.4267578125,25.0439453125
37.7671767,-91.3623046875,-87.7685546875,22.0166015625
37.800304,-87.6513671875,-88.7939453125,18.4521484375
37.8293905,-83.6474609375,-89.2822265625,15.6201171875
37.8654478,-80.8642578125,-90.7958984375,15.5712890625
37.8856173,-77.9833984375,-89.2333984375,21.5771484375
37.9231874,-77.6416015625,-87.8662109375,28.7548828125
37.9469978,-77.8857421875,-87.9638671875,35.6396484375
37.9858071,-79.2041015625,-87.9150390625,41.0107421875
38.0107655,-79.4482421875,-87.5732421875,46.0400390625
38.0389138,-80.5224609375,-86.9384765625,49.3603515625
38.07779,-82.5732421875,-87.2802734375,51.2646484375
38.1007522,-84.6728515625,-88.0126953125,49.5068359375
38.1347764,-86.8701171875,-89.5751953125,46.8212890625
38.1627841,-89.0185546875,-90.0634765625,45.0146484375
38.1871192,-91.0205078125,-90.6005859375,42.8173828125
38.2213597,-92.3388671875,-91.2353515625,40.8154296875
38.2504298,-94.5361328125,-92.1142578125,38.6181640625
38.2847321,-96.6845703125,-92.8955078125,35.8837890625
38.3142087,-99.2236328125,-93.8720703125,33.2958984375
38.3407101,-99.9072265625,-94.7998046875,30.2685546875
38.3762479,-97.9052734375,-94.7021484375,26.5576171875
38.4028107,-93.8525390625,-96.1669921875,23.5302734375
38.4378893,-90.5322265625,-96.7041015625,19.9169921875
38.462754,-86.8212890625,-97.1923828125,16.0107421875
38.5024274,-83.1103515625,-98.1689453125,13.5693359375
38.522392,-79.2041015625,-97.9248046875,13.7158203125
38.5519575,-76.2255859375,-97.1435546875,19.8681640625
38.5839231,-75.4931640625,-96.0205078125,26.5087890625
38.6109385,-76.2744140625,-95.2392578125,33.0517578125
38.6472049,-77.3486328125,-94.8486328125,38.6669921875
38.6731105,-77.8857421875,-93.7744140625,44.3310546875
38.7110856,-79.3994140625,-93.2861328125,47.9443359375
38.7350523,-81.3037109375,-92.4072265625,49.4091796875
38.7630641,-83.5009765625,-92.9443359375,48.1396484375
38.7930011,-85.9912109375,-93.8232421875,46.0888671875
38.8241016,-89.1162109375,-93.2373046875,43.5986328125
38.8520967,-91.3134765625,-93.6767578125,41.4990234375
38.8904425,-93.5595703125,-93.2861328125,39.5458984375
38.9122315,-95.7568359375,-94.3115234375,36.4208984375
38.9492934,-98.5400390625,-94.2626953125,33.2958984375
38.9719365,-101.4208984375,-94.5068359375,29.1943359375
39.0056887,-103.6181640625,-95.2392578125,26.5087890625
39.0324808,-103.7158203125,-95.2880859375,23.2373046875
39.0760572,-99.5166015625,-96.1181640625,19.2822265625
39.0942282,-96.2451171875,-96.6064453125,16.3037109375
39.1220897,-93.4619140625,-96.5576171875,12.9833984375
39.1560896,-91.3623046875,-97.1435546875,10.6396484375
39.1844483,-88.9208984375,-96.1181640625,13.1298828125
39.2185365,-86.8212890625,-94.3115234375,20.0634765625
39.2467789,-85.6982421875,-93.7744140625,28.5595703125
39.2751231,-85.6494140625,-91.8701171875,36.6162109375
39.3094917,-86.3330078125,-92.1142578125,43.9892578125
39.336522,-87.4560546875,-90.8447265625,49.2138671875
39.3637171,-87.8955078125,-90.5029296875,53.1201171875
39.3992818,-88.4814453125,-90.4052734375,53.8525390625
39.425932,-89.7998046875,-91.4306640625,52.0947265625
39.4606098,-91.6552734375,-91.0400390625,50.1904296875
39.4898494,-93.8037109375,-91.0400390625,48.6279296875
39.5154197,-94.9267578125,-90.7470703125,45.7958984375
39.5503188,-97.6123046875,-90.0634765625,43.6474609375
39.5768618,-99.2724609375,-90.3076171875,41.6455078125
39.6050179,-101.5673828125,-91.4306640625,38.6181640625
39.6391259,-103.5693359375,-91.2841796875,36.1279296875
39.6668593,-104.3994140625,-92.1142578125,32.6611328125
39.6964534,-102.1044921875,-92.3583984375,29.9755859375
39.7595893,-98.2470703125,-92.2607421875,26.4111328125
39.7615202,-95.0244140625,-93.4326171875,23.7255859375
39.7905677,-92.5341796875,-94.0185546875,21.2353515625
39.8188273,-89.2138671875,-94.1162109375,21.1376953125
39.8481164,-87.3583984375,-92.2607421875,26.0693359375
39.8810162,-85.6494140625,-91.3818359375,35.2001953125
39.9096421,-85.0146484375,-89.5751953125,42.6220703125
39.9399482,-85.1123046875,-88.6474609375,48.9208984375
39.9704993,-85.7958984375,-86.8408203125,54.7802734375
40.0008256,-86.4306640625,-86.6455078125,58.8330078125
40.0279166,-87.1142578125,-86.0107421875,61.3720703125
40.0599514,-87.8466796875,-85.8642578125,60.4443359375
40.0905561,-88.2861328125,-86.5478515625,57.7587890625
40.1223528,-89.6044921875,-86.4013671875,54.4873046875
40.1509322,-91.1181640625,-86.0107421875,52.1923828125
40.1790934,-92.5341796875,-85.6689453125,50.1416015625
40.2117124,-94.0478515625,-86.2548828125,47.2607421875
40.2405738,-96.0009765625,-85.6201171875,43.5986328125
40.2700984,-98.2470703125,-86.5966796875,40.0341796875
40.3020528,-99.6142578125,-86.4013671875,36.3720703125
40.3305825,-99.7607421875,-87.2314453125,32.7099609375
40.3638044,-96.1962890625,-87.2802734375,28.5595703125
40.3926236,-92.3388671875,-87.4267578125,25.1416015625
40.4217299,-88.4814453125,-87.8173828125,21.4306640625
40.4591614,-85.1611328125,-88.2080078125,18.4521484375
40.494019,-81.9384765625,-87.8173828125,19.4287109375
40.5151639,-79.9365234375,-85.8154296875,25.5322265625
40.5430932,-77.9833984375,-84.3994140625,32.8076171875
40.5734732,-77.4951171875,-83.4716796875,39.4482421875
40.618291,-78.0810546875,-82.2021484375,45.6494140625
40.6378211,-79.9853515625,-80.3466796875,50.1416015625
40.6628413,-80.9619140625,-78.6865234375,53.2177734375
40.6971151,-82.4755859375,-77.4169921875,53.5595703125
40.7254387,-83.6962890625,-77.8076171875,50.8740234375
40.7552576,-86.4306640625,-77.0263671875,48.7255859375
40.790396,-87.6513671875,-76.1474609375,46.8212890625
40.8158286,-90.4833984375,-76.0009765625,44.6240234375
40.8518245,-93.2177734375,-76.0498046875,43.0126953125
40.8757381,-94.9755859375,-76.7333984375,40.0341796875
40.9037364,-97.2216796875,-76.2939453125,37.3974609375
40.9417643,-100.1513671875,-76.0986328125,34.2724609375
40.9657403,-103.1787109375,-75.2197265625,31.7333984375
40.9937992,-102.5439453125,-76.1962890625,29.0478515625
41.0348848,-99.1748046875,-75.8544921875,25.3369140625
41.0552859,-95.9033203125,-75.6103515625,21.9677734375
41.0916761,-92.8271484375,-76.6845703125,19.2333984375
41.1177967,-90.9228515625,-76.3427734375,19.3310546875
41.1517405,-88.7744140625,-73.9013671875,25.2880859375
41.1724592,-86.5771484375,-72.1923828125,33.1982421875
41.2144518,-85.9423828125,-70.5810546875,39.1552734375
41.2358604,-85.3564453125,-69.7509765625,45.2587890625
41.274458,-87.3095703125,-68.4814453125,50.1904296875
41.3003089,-88.0419921875,-66.6259765625,54.2919921875
41.3268285,-89.1162109375,-66.1376953125,55.3662109375
41.3626142,-90.8251953125,-66.3818359375,54.8779296875
41.3865504,-92.4365234375,-66.1376953125,53.3642578125
41.421118,-94.3408203125,-65.5029296875,53.4619140625
41.450314,-96.7333984375,-64.8193359375,51.9482421875
41.4854266,-98.1982421875,-65.4052734375,50.4833984375
41.5048536,-100.1513671875,-65.4541015625,48.4814453125
41.5430065,-102.1044921875,-64.9658203125,45.5517578125
41.5680388,-104.2041015625,-64.8193359375,42.4755859375
41.6036604,-107.4755859375,-66.0400390625,39.8876953125
41.628694,-108.7451171875,-66.0400390625,37.0068359375
41.6677158,-105.7177734375,-65.9912109375,33.3935546875
41.6902206,-102.5927734375,-66.4306640625,30.2197265625
41.727222,-99.7607421875,-67.2119140625,27.8271484375
41.7476986,-96.3427734375,-66.6748046875,28.6083984375
41.7847302,-93.1689453125,-65.3564453125,34.1748046875
41.8097905,-91.3134765625,-63.3056640625,42.2802734375
41.8459767,-89.0185546875,-62.4755859375,49.9951171875
41.8710262,-88.8232421875,-60.5712890625,55.5126953125
41.9157783,-90.3857421875,-59.8388671875,61.4208984375
41.9361478,-90.8740234375,-58.4228515625,65.8154296875
41.9621594,-93.3642578125,-59.2041015625,67.7685546875
41.9891708,-94.7802734375,-59.4482421875,66.4990234375
42.0265442,-95.9521484375,-59.4482421875,64.3505859375
42.0510132,-98.0517578125,-58.9111328125,61.9580078125
42.0850681,-99.5166015625,-59.4482421875,60.3466796875
42.1118009,-101.6162109375,-59.8876953125,58.6865234375
42.150275,-103.7646484375,-59.3017578125,56.3427734375
42.1737643,-105.7666015625,-60.0341796875,53.7060546875
42.2077917,-108.5986328125,-60.9130859375,51.2646484375
42.2331946,-110.0146484375,-62.1826171875,48.8232421875
42.2715938,-110.9912109375,-62.0361328125,46.6259765625
42.2939827,-108.6474609375,-62.9150390625,43.0126953125
42.3290358,-104.2041015625,-63.2080078125,39.7900390625
42.3534656,-100.2001953125,-63.6962890625,37.3486328125
42.3904216,-97.1728515625,-64.3798828125,37.7392578125
42.4108861,-94.0966796875,-62.6220703125,43.0126953125
42.4479811,-90.9716796875,-61.4501953125,52.1435546875
42.4745444,-88.5302734375,-60.3759765625,60.7373046875
42.5108374,-88.1396484375,-60.0341796875,68.5498046875
42.5348141,-88.9697265625,-59.2529296875,74.5556640625
42.5694279,-89.3603515625,-57.8857421875,78.5595703125
42.5963663,-90.8251953125,-56.6650390625,81.7333984375
42.63253,-91.9970703125,-56.9580078125,80.5126953125
42.654464,-93.0712890625,-56.7626953125,79.0478515625
42.7017687,-95.1708984375,-57.9833984375,76.5087890625
42.7221022,-96.8798828125,-58.0810546875,73.2861328125
42.7471905,-98.8818359375,-58.8623046875,71.5283203125
42.7768053,-101.5185546875,-57.5439453125,69.5751953125
42.8120992,-102.6416015625,-59.4482421875,67.1826171875
42.8381229,-104.8876953125,-59.5458984375,64.4482421875
42.8721544,-107.5244140625,-60.5712890625,61.8603515625
42.894046,-108.8427734375,-61.1572265625,58.2958984375
42.9389577,-107.0361328125,-61.3037109375,54.7802734375
42.958045,-102.4951171875,-62.5732421875,50.8740234375
42.9839841,-99.8095703125,-62.9150390625,47.7490234375
43.034596,-95.2685546875,-63.3056640625,46.7236328125
43.0560016,-92.6318359375,-62.2802734375,50.0927734375
43.0804852,-89.6044921875,-60.6689453125,57.5634765625
43.1089808,-87.5537109375,-60.0830078125,66.1572265625
43.1429496,-85.3076171875,-59.8388671875,73.9208984375
43.1699782,-85.6982421875,-58.9111328125,79.5849609375
43.2095277,-86.0888671875,-57.7880859375,85.0537109375
43.2275278,-85.6005859375,-57.5927734375,87.3486328125
43.2620328,-87.7490234375,-57.1533203125,87.8369140625
43.2893999,-89.7021484375,-57.8369140625,85.5419921875
43.3277093,-90.4833984375,-57.7392578125,82.5634765625
43.3497138,-93.4619140625,-58.5205078125,81.2451171875
43.3827052,-95.7080078125,-58.0810546875,78.7548828125
43.4102837,-97.2216796875,-59.2529296875,75.8740234375
43.4481419,-99.1748046875,-58.8134765625,73.0908203125
43.4682564,-101.1767578125,-59.2041015625,69.8681640625
43.5057745,-103.4716796875,-59.3505859375,67.8662109375
43.5305039,-104.8388671875,-60.1806640625,64.7412109375
43.5610601,-104.4970703125,-61.6455078125,61.0791015625
43.5955431,-100.5419921875,-61.3037109375,57.3193359375
43.6213887,-96.5869140625,-61.9873046875,55.4150390625
43.6588724,-93.6083984375,-61.9384765625,53.5595703125
43.6829079,-89.4091796875,-60.7666015625,56.0498046875
43.708879,-86.2353515625,-60.3759765625,63.7646484375
43.7480945,-83.5498046875,-59.8388671875,72.8955078125
43.7711095,-81.5966796875,-58.2763671875,79.8291015625
43.8057353,-81.3037109375,-57.6416015625,85.2490234375
43.8337311,-83.2568359375,-57.3486328125,90.4248046875
43.8597436,-83.5986328125,-56.7138671875,92.5244140625
43.8963362,-84.8193359375,-57.1044921875,91.4990234375
43.9244552,-85.6494140625,-57.7392578125,88.7158203125
43.9514164,-87.9443359375,-57.2998046875,86.2255859375
43.9854757,-89.5556640625,-57.5439453125,84.1259765625
44.0134124,-92.2412109375,-57.5439453125,81.8798828125
44.0423717,-94.3408203125,-58.8134765625,78.8525390625
44.0750321,-96.7333984375,-58.2275390625,76.8505859375
44.1032967,-98.5400390625,-58.8623046875,74.1162109375
44.1323435,-100.4443359375,-59.4482421875,71.6259765625
44.1659104,-101.7138671875,-60.1806640625,67.5244140625
44.1944911,-102.2509765625,-60.8642578125,64.3505859375
44.225503,-98.9794921875,-61.0595703125,60.9814453125
44.2555093,-94.1455078125,-63.0126953125,57.1240234375
44.2825243,-90.5322265625,-62.7197265625,55.5126953125
44.3183621,-86.5283203125,-62.2802734375,60.1025390625
44.3443372,-82.8662109375,-60.7177734375,69.2822265625
44.3763561,-79.7412109375,-60.2294921875,77.9248046875
44.4083297,-77.8857421875,-58.7646484375,84.5654296875
44.4363465,-77.2509765625,-58.7158203125,91.2548828125
44.4643654,-78.1298828125,-57.4951171875,95.8935546875
44.4987789,-78.7158203125,-56.7138671875,98.6279296875
44.5257628,-79.3505859375,-57.5439453125,97.4072265625
44.5567697,-80.0341796875,-58.3251953125,94.8681640625
44.5877691,-82.5244140625,-57.7880859375,91.0595703125
44.6163732,-84.1845703125,-58.6181640625,89.3017578125
44.6477617,-86.7236328125,-58.5693359375,86.3232421875
44.6787752,-89.5068359375,-58.6669921875,83.1005859375
44.7097964,-91.4599609375,-59.8876953125,79.9267578125
44.7383953,-94.0478515625,-59.7900390625,77.0947265625
44.7677931,-96.6845703125,-60.4248046875,73.2861328125
44.7953566,-98.4912109375,-61.9384765625,69.3310546875
44.8278756,-98.5888671875,-62.5732421875,65.6689453125
44.858014,-96.6357421875,-62.4267578125,62.2021484375
44.8895596,-92.6318359375,-63.5009765625,58.3447265625
44.9169473,-89.9462890625,-63.9892578125,58.1982421875
44.9479103,-86.1376953125,-63.0126953125,63.6181640625
44.9795695,-83.1591796875,-62.1826171875,72.7490234375
45.0093065,-80.1318359375,-61.4013671875,82.0751953125
45.0411214,-78.5693359375,-61.9384765625,88.8623046875
45.0706381,-77.8857421875,-60.3271484375,95.1611328125
45.1086796,-78.7646484375,-60.3271484375,98.4814453125
45.1268103,-79.2529296875,-59.1552734375,99.9951171875
45.1597956,-80.6689453125,-59.6923828125,98.1396484375
45.189883,-82.6220703125,-60.8642578125,94.5263671875
45.2216861,-84.6240234375,-59.9853515625,90.9619140625
45.2517702,-86.4306640625,-60.3759765625,87.8857421875
45.2945182,-88.3837890625,-61.5478515625,85.1513671875
45.311087,-90.6298828125,-61.7919921875,81.7333984375
45.3413599,-92.9248046875,-61.8896484375,78.9990234375
45.377868,-94.4873046875,-63.0126953125,74.5556640625
45.4022193,-97.5146484375,-63.5009765625,70.2099609375
45.448443,-99.2236328125,-63.7939453125,67.0361328125
45.4626293,-99.0771484375,-63.7939453125,63.3251953125
45.4899625,-96.5380859375,-64.9169921875,59.3701171875
45.5207753,-92.4853515625,-64.9169921875,55.6591796875
45.5534203,-89.7998046875,-65.6982421875,55.3662109375
45.581033,-85.9423828125,-64.4775390625,60.4443359375
45.6113286,-81.9384765625,-63.9404296875,67.5244140625
45.6492685,-79.4482421875,-63.8916015625,75.1904296875
45.6696493,-77.6904296875,-63.5498046875,80.2685546875
45.7009393,-77.1533203125,-63.3056640625,85.6396484375
45.7419833,-78.0810546875,-62.6708984375,88.8134765625
45.7620842,-79.4482421875,-63.2080078125,90.0341796875
45.7987533,-80.9619140625,-62.9638671875,88.2763671875
45.8243082,-83.4033203125,-63.5009765625,83.7841796875
45.8721138,-84.8193359375,-63.0615234375,79.6826171875
45.8823728,-86.4306640625,-63.2568359375,77.7783203125
45.9216772,-88.8720703125,-63.8916015625,74.2626953125
45.9431383,-91.0205078125,-63.7939453125,70.1611328125
45.9797144,-93.1689453125,-64.3798828125,66.6455078125
46.0047273,-95.4638671875,-64.7216796875,63.4716796875
46.0415196,-97.3193359375,-64.9658203125,59.2724609375
46.0650549,-99.2236328125,-65.3564453125,55.9033203125
46.1000633,-100.1513671875,-66.2841796875,52.7294921875
46.1261922,-96.9775390625,-67.2607421875,48.3837890625
46.1557177,-93.1689453125,-67.7978515625,44.8193359375
46.1830952,-89.6044921875,-67.6513671875,44.1357421875
46.2172382,-86.5283203125,-66.6259765625,47.1630859375
46.2436081,-83.3056640625,-65.5517578125,54.8779296875
46.2912925,-81.5478515625,-65.8447265625,60.2978515625
46.3107805,-80.8642578125,-65.0146484375,65.5224609375
46.3360578,-81.1572265625,-64.5263671875,69.6728515625
46.3729128,-83.1103515625,-63.6962890625,72.5537109375
46.3958746,-84.7705078125,-63.3544921875,72.7978515625
46.4322496,-86.2841796875,-64.4775390625,70.7958984375
46.4582279,-88.2861328125,-64.9169921875,67.4267578125
46.4952763,-89.6044921875,-64.6240234375,65.7666015625
46.5134196,-91.9482421875,-64.9658203125,63.6669921875
46.5505996,-94.3408203125,-65.7958984375,61.7626953125
46.5762543,-96.5869140625,-66.2353515625,58.9306640625
46.6137041,-98.3935546875,-66.4306640625,55.9521484375
46.6374353,-100.5419921875,-67.0166015625,52.5830078125
46.6653894,-102.2509765625,-68.0908203125,49.1162109375
46.7011268,-104.5458984375,-68.2373046875,46.4794921875
46.7273045,-106.0107421875,-68.5302734375,42.4267578125
46.763573,-103.6669921875,-70.1904296875,39.0576171875
46.789376,-99.6142578125,-71.0693359375,36.7626953125
46.827032,-96.1962890625,-70.5322265625,37.3974609375
46.8480577,-92.9248046875,-69.8486328125,41.8408203125
46.8829497,-90.0927734375,-68.5791015625,48.4326171875
46.9094057,-87.7978515625,-68.1396484375,54.9755859375
46.9477487,-85.3564453125,-67.7490234375,58.6376953125
46.9687362,-85.6005859375,-66.5283203125,63.7646484375
47.0027869,-86.7724609375,-66.0888671875,65.9619140625
47.0305312,-87.5048828125,-66.2841796875,65.8642578125
47.0660855,-88.0419921875,-66.8701171875,63.9111328125
47.0885788,-89.4091796875,-67.3095703125,61.5185546875
47.1231357,-91.7041015625,-67.7978515625,58.9306640625
47.1481135,-93.6572265625,-67.7490234375,57.9052734375
47.1832824,-96.7333984375,-67.8466796875,55.1708984375
47.2100245,-98.8818359375,-68.4326171875,52.8271484375
47.2484012,-100.1513671875,-68.9208984375,50.4833984375
47.2739821,-102.1533203125,-69.8486328125,47.3583984375
47.3028646,-105.4248046875,-71.1181640625,44.4775390625
47.3408702,-106.5966796875,-72.4365234375,41.8896484375
47.3630521,-107.1826171875,-72.8759765625,38.4716796875
47.4027506,-104.7412109375,-73.3642578125,35.7861328125
47.422118,-100.5419921875,-74.6826171875,34.1748046875
47.4578179,-97.4169921875,-74.3408203125,35.4443359375
47.4823408,-95.0732421875,-73.4619140625,41.5478515625
47.5217742,-91.7041015625,-72.5341796875,47.3095703125
47.5438137,-88.6279296875,-71.8017578125,52.4365234375
47.581437,-86.7724609375,-71.1181640625,57.2705078125
47.5993978,-86.7236328125,-70.8251953125,61.0791015625
47.6413417,-88.3349609375,-70.8740234375,63.7158203125
47.6727598,-89.2138671875,-70.9228515625,63.5693359375
47.6938428,-89.9462890625,-72.8271484375,62.3974609375
47.735664,-90.8251953125,-72.4853515625,59.5654296875
47.7526781,-93.4130859375,-73.9013671875,57.2216796875
47.7906805,-95.2197265625,-73.9501953125,55.9033203125
47.8146583,-97.7099609375,-74.9267578125,54.7314453125
47.8485546,-99.1259765625,-75.3662109375,51.9970703125
47.8726799,-101.2744140625,-76.7333984375,49.7998046875
47.9074099,-103.2275390625,-77.0751953125,47.0654296875
47.9320062,-104.9853515625,-78.4912109375,44.4287109375
47.9670429,-107.3291015625,-79.8095703125,41.3037109375
47.993426,-106.4501953125,-80.7373046875,37.9833984375
48.0292883,-104.1064453125,-80.4443359375,35.4931640625
48.0543516,-99.5654296875,-82.1044921875,33.0517578125
48.0901222,-94.5361328125,-81.6650390625,33.6865234375
48.1178952,-90.6298828125,-80.2978515625,39.3017578125
48.1469987,-86.1376953125,-79.6142578125,44.8681640625
48.1870828,-83.3544921875,-79.2724609375,51.0205078125
48.2063115,-81.4013671875,-78.2958984375,55.4150390625
48.2463634,-80.1806640625,-78.4912109375,59.1748046875
48.2943337,-81.8408203125,-77.9052734375,62.1044921875
48.3132694,-83.5009765625,-78.4912109375,61.6162109375
48.3269126,-84.8193359375,-79.4677734375,59.2236328125
48.3639163,-85.7958984375,-80.4443359375,56.9287109375
48.3860514,-88.6767578125,-80.6396484375,55.4638671875
48.4252935,-91.1669921875,-80.6396484375,54.2431640625
48.4497366,-92.9736328125,-81.0791015625,52.4365234375
48.4861237,-95.8544921875,-82.4951171875,49.9951171875
48.5092685,-97.8076171875,-82.0556640625,47.9931640625
48.5387449,-100.0537109375,-82.9833984375,45.0146484375
48.5731318,-102.5927734375,-84.3017578125,42.7197265625
48.6001562,-104.0087890625,-85.1806640625,39.8876953125
48.6302444,-105.2294921875,-85.5224609375,36.7626953125
48.657511,-102.0556640625,-86.1083984375,33.3447265625
48.6939951,-98.7353515625,-87.1337890625,31.2451171875
48.7166094,-93.9501953125,-87.4755859375,32.4658203125
48.7554707,-90.1904296875,-86.3037109375,37.8369140625
48.7787525,-86.7724609375,-85.8642578125,44.6240234375
48.8157342,-84.4775390625,-85.4736328125,50.9228515625
48.8422233,-83.2080078125,-84.3017578125,56.6357421875
48.8780184,-83.1591796875,-83.2763671875,60.3466796875
48.8992076,-85.0634765625,-83.4716796875,63.5205078125
48.935226,-85.7470703125,-83.3251953125,63.9599609375
48.9622834,-86.8701171875,-84.5458984375,62.2998046875
48.9883852,-88.1396484375,-84.3017578125,60.6396484375
49.0238607,-90.2880859375,-85.4248046875,59.0771484375
49.0511561,-92.8759765625,-84.7900390625,56.4404296875
49.0938849,-95.1220703125,-85.8154296875,53.9013671875
49.140777,-97.5146484375,-86.7431640625,51.3134765625
49.1419841,-100.1025390625,-87.4267578125,49.1650390625
49.1735603,-101.7138671875,-88.3056640625,46.9189453125
49.2025645,-103.9111328125,-88.6474609375,44.3798828125
49.23851,-106.4501953125,-90.2587890625,40.8642578125
49.2635307,-109.1357421875,-90.5029296875,37.5439453125
49.2911908,-107.2314453125,-90.5517578125,34.0283203125
49.3261222,-102.7392578125,-91.6259765625,32.5634765625
49.3537771,-99.4189453125,-91.1376953125,33.6376953125
49.3822473,-96.0009765625,-89.2822265625,39.0576171875
49.4176113,-92.9248046875,-89.7705078125,47.6513671875
49.4439896,-90.4833984375,-88.0615234375,53.9013671875
49.4736012,-88.1396484375,-88.0615234375,60.0537109375
49.5065027,-87.4560546875,-87.1337890625,64.2529296875
49.5341454,-88.0908203125,-85.6201171875,68.3544921875
49.5680476,-89.0185546875,-86.1572265625,69.7705078125
49.5952354,-89.6533203125,-85.9619140625,67.5244140625
49.6243802,-90.2392578125,-86.0595703125,66.1572265625
49.652476,-92.3876953125,-86.5478515625,66.4013671875
49.6868451,-95.3173828125,-87.3779296875,63.2275390625
49.7152955,-97.8564453125,-87.7685546875,61.2744140625
49.7469989,-99.7119140625,-88.3544921875,58.9794921875
49.7818329,-102.1533203125,-88.3544921875,56.2451171875
49.8024423,-104.9365234375,-88.6962890625,53.3154296875
49.8357237,-107.6220703125,-89.2822265625,51.0205078125
49.8658307,-110.5029296875,-89.6728515625,48.2373046875
49.8994833,-112.6025390625,-90.9423828125,44.1357421875
49.9260522,-110.6005859375,-91.3330078125,40.7666015625
49.9555973,-106.0107421875,-92.0654296875,39.2529296875
49.9838725,-103.3251953125,-90.6005859375,41.2060546875
50.0165618,-100.3466796875,-88.6962890625,47.9931640625
50.0435265,-96.4892578125,-89.0380859375,56.2451171875
50.0776615,-93.0712890625,-87.9638671875,63.4716796875
50.1076473,-90.2392578125,-88.0126953125,69.9658203125
50.1341641,-89.2626953125,-86.2548828125,74.8486328125
50.1685955,-90.1904296875,-86.6943359375,77.9248046875
50.1988002,-90.8740234375,-87.1337890625,78.0712890625
50.2356189,-91.5576171875,-87.4755859375,76.1669921875
50.2600682,-92.0458984375,-88.7451171875,73.6279296875
50.2873023,-93.6083984375,-87.7685546875,70.4052734375
50.3164288,-96.1962890625,-87.9150390625,67.2802734375
50.3494873,-98.1005859375,-88.3056640625,65.3271484375
50.3766205,-99.8583984375,-89.6240234375,62.0556640625
50.4093553,-101.2744140625,-89.3798828125,59.6630859375
50.4379675,-102.4951171875,-90.4541015625,55.5615234375
50.468737,-104.7412109375,-90.0146484375,51.7041015625
50.5002918,-106.0595703125,-90.4052734375,48.0419921875
50.5271278,-107.3291015625,-90.4541015625,44.9169921875
50.560554,-105.6201171875,-91.4794921875,40.6201171875
50.5961772,-100.9814453125,-92.3095703125,38.0322265625
50.6201044,-97.7099609375,-91.5771484375,39.1552734375
50.6518799,-93.8525390625,-89.6728515625,46.6748046875
50.6788244,-90.2880859375,-88.7939453125,54.8779296875
50.7093934,-86.9677734375,-88.1103515625,62.8369140625
50.7432874,-84.3310546875,-87.1337890625,69.3310546875
50.7692751,-83.3544921875,-86.3525390625,73.5302734375
50.8077541,-83.6474609375,-85.5224609375,76.7041015625
50.8316351,-85.5517578125,-85.6201171875,75.1416015625
50.8658803,-86.9677734375,-86.7431640625,72.5048828125
50.8949803,-88.4326171875,-86.0595703125,70.0146484375
50.9208531,-91.4111328125,-86.4990234375,66.9873046875
50.9591019,-93.2666015625,-86.5966796875,64.5947265625
51.0009608,-94.9755859375,-87.0361328125,62.5439453125
51.0228885,-97.3193359375,-86.6943359375,58.8330078125
51.0448816,-99.8583984375,-88.0126953125,55.3173828125
51.0798946,-101.6650390625,-87.2314453125,51.3134765625
51.1008045,-104.3017578125,-88.1591796875,48.2373046875
51.1398366,-106.2060546875,-88.6474609375,44.7705078125
51.16391,-108.5009765625,-88.0126953125,40.0830078125
51.2010459,-108.2080078125,-89.1845703125,37.0556640625
51.2240246,-103.9111328125,-89.4287109375,34.3212890625
51.2601577,-101.3232421875,-89.0380859375,35.1513671875
51.2828616,-97.4169921875,-87.9150390625,41.7919921875
51.3185611,-95.1708984375,-86.4990234375,49.6044921875
51.3417391,-92.0947265625,-86.2548828125,56.4404296875
51.3805435,-90.0927734375,-84.6923828125,62.8369140625
51.4055151,-88.6279296875,-83.8134765625,65.9130859375
51.4334992,-89.1162109375,-83.5205078125,68.6962890625
51.4686385,-89.7509765625,-83.2763671875,68.8427734375
51.4948496,-90.4833984375,-83.8134765625,65.9130859375
51.5343869,-91.8017578125,-84.3505859375,63.9111328125
51.557855,-93.5107421875,-84.7412109375,61.0302734375
51.5943263,-94.9267578125,-84.3017578125,58.3935546875
51.6143528,-97.5146484375,-84.6435546875,55.9521484375
51.6498661,-100.4443359375,-85.1806640625,52.3388671875
51.6758068,-101.9580078125,-85.8642578125,48.9208984375
51.7105887,-103.7158203125,-86.2060546875,46.1865234375
51.7347182,-105.2783203125,-86.7919921875,42.3291015625
51.77275,-107.9638671875,-86.7431640625,39.2529296875
51.7975474,-109.8681640625,-87.6220703125,35.4443359375
51.8369648,-110.5517578125,-87.4267578125,32.7587890625
51.8548561,-106.2548828125,-88.4521484375,29.1943359375
51.8912536,-102.8857421875,-88.0615234375,29.9267578125
51.9155551,-99.3212890625,-86.4013671875,37.5927734375
51.9495846,-96.8310546875,-85.6689453125,45.4052734375
51.9777273,-93.7060546875,-84.1552734375,52.6318359375
52.0129849,-90.2880859375,-82.6904296875,59.0283203125
52.0347234,-89.2138671875,-81.9580078125,64.1064453125
52.0689627,-88.9697265625,-81.0302734375,66.8408203125
52.0959069,-90.1416015625,-81.2744140625,66.7431640625
52.1328861,-90.5810546875,-82.0556640625,64.5947265625
52.1603769,-92.2900390625,-81.8603515625,61.7626953125
52.1936687,-93.5107421875,-81.8115234375,58.9794921875
52.2193307,-95.5126953125,-81.8115234375,56.3916015625
52.2558579,-98.1982421875,-82.3486328125,53.9013671875
52.2811403,-99.9560546875,-82.7392578125,50.7763671875
52.30911,-101.4208984375,-83.4716796875,49.0673828125
52.3442812,-104.3505859375,-83.5205078125,45.6494140625
52.3667074,-105.4736328125,-84.3994140625,42.4267578125
52.4041067,-108.7451171875,-84.5458984375,39.4970703125
52.4282496,-109.8681640625,-84.7412109375,34.7607421875
52.4644007,-110.8447265625,-85.5712890625,31.0986328125
52.4889088,-107.6708984375,-86.8896484375,27.9736328125
52.5298169,-103.4228515625,-85.8642578125,27.2900390625
52.5518355,-100.2490234375,-84.5458984375,33.9794921875
52.5808289,-96.2939453125,-83.0810546875,42.7197265625
52.6147945,-92.9736328125,-82.6416015625,50.7763671875
52.6416937,-90.0439453125,-81.6162109375,56.7822265625
52.6757732,-87.8955078125,-82.2021484375,61.1279296875
52.7007194,-86.9189453125,-81.2255859375,62.9345703125
52.7382486,-87.9443359375,-81.3232421875,62.5927734375
52.7616371,-88.1396484375,-81.4208984375,59.3212890625
52.7985687,-89.4580078125,-83.0810546875,54.2919921875
52.822354,-91.0205078125,-82.6904296875,50.4345703125
52.8588397,-92.0947265625,-82.6416015625,46.5283203125
52.8840163,-94.3408203125,-83.2763671875,42.1826171875
52.9219115,-96.9287109375,-83.9599609375,39.1552734375
52.9458218,-99.1748046875,-84.0576171875,34.3701171875
52.9748475,-100.9814453125,-84.7900390625,30.4150390625
53.0038496,-102.6416015625,-84.7412109375,26.9970703125
53.0418235,-105.1806640625,-85.7666015625,23.3837890625
53.0638062,-107.6708984375,-86.2548828125,18.5498046875
53.1000939,-108.3544921875,-87.1337890625,13.8134765625
53.126636,-106.5478515625,-87.7197265625,10.2490234375
53.161043,-101.7626953125,-88.0126953125,9.0283203125
53.1875368,-97.8564453125,-87.3291015625,13.1298828125
53.2230649,-93.6572265625,-86.0107421875,20.7470703125
53.2440519,-89.7509765625,-85.8642578125,28.1689453125
53.2791782,-86.5771484375,-85.3271484375,33.8330078125
53.3042179,-84.0380859375,-85.1806640625,38.4228515625
53.3410038,-83.4033203125,-84.3505859375,42.2802734375
53.3670018,-84.1357421875,-85.3759765625,44.6240234375
53.4011834,-85.6982421875,-84.7412109375,42.6220703125
53.4219846,-86.8212890625,-85.2783203125,39.7900390625
53.4569483,-88.7255859375,-85.6201171875,36.5185546875
53.4859193,-90.7275390625,-86.1572265625,33.8818359375
53.5221221,-92.2900390625,-86.9384765625,31.8310546875
53.5451137,-94.9755859375,-87.2314453125,29.2919921875
53.5830496,-96.0986328125,-87.7685546875,26.8994140625
53.6093017,-98.3447265625,-88.1591796875,23.9697265625
53.6446372,-101.5673828125,-88.9404296875,21.4306640625
53.6662624,-104.3017578125,-89.3798828125,18.4033203125
53.7028644,-106.7919921875,-90.4541015625,15.2294921875
53.7264989,-108.7451171875,-90.3076171875,11.8603515625
53.7629168,-109.1845703125,-91.5283203125,9.8583984375
53.7878394,-103.7646484375,-91.0888671875,8.3447265625
53.8263709,-99.4189453125,-89.9658203125,12.6904296875
53.8468882,-95.1220703125,-88.1103515625,20.2099609375
53.8808107,-91.8017578125,-88.2568359375,27.9248046875
53.9081789,-88.7255859375,-87.1826171875,35.5908203125
53.9400784,-86.5771484375,-87.9150390625,40.4248046875
53.9686947,-84.8681640625,-87.0361328125,44.5751953125
54.0056349,-85.7958984375,-87.5732421875,47.0166015625
54.0284949,-86.8701171875,-87.7197265625,46.2353515625
54.0630129,-87.9443359375,-88.8427734375,44.2333984375
54.0886295,-89.1650390625,-89.3310546875,41.9384765625
54.1254525,-90.3369140625,-88.9892578125,40.3759765625
54.1505777,-91.9970703125,-90.0634765625,37.4462890625
54.1855987,-92.9248046875,-90.8447265625,35.2978515625
54.2105279,-95.6591796875,-91.9677734375,32.8564453125
54.2395218,-96.8310546875,-91.5283203125,30.1708984375
54.2745181,-98.4912109375,-92.4560546875,27.9248046875
54.299381,-101.0302734375,-92.9443359375,24.7998046875
54.3304291,-102.7392578125,-93.8720703125,20.8935546875
54.3673083,-105.6201171875,-93.5791015625,17.4267578125
54.3918098,-105.5712890625,-94.5556640625,14.5458984375
54.4298522,-100.9814453125,-94.5556640625,14.7900390625
54.4518403,-96.9775390625,-92.8955078125,18.7939453125
54.4808408,-93.2666015625,-91.5771484375,27.1435546875
54.5128273,-89.9462890625,-90.6494140625,35.4931640625
54.5438811,-87.3583984375,-91.2353515625,43.0615234375
54.5693569,-85.1611328125,-90.7470703125,49.0673828125
54.6046302,-83.7939453125,-89.9658203125,53.7548828125
54.6317101,-84.1357421875,-89.9169921875,56.0498046875
54.6642772,-85.5029296875,-90.9912109375,56.1474609375
54.6948149,-85.5029296875,-91.3818359375,52.9248046875
54.7245696,-86.3818359375,-92.4560546875,50.5322265625
54.7520368,-88.0419921875,-92.5048828125,47.5048828125
54.7830699,-90.3857421875,-93.9208984375,46.0400390625
54.8125752,-91.8994140625,-94.0185546875,43.0615234375
54.8453305,-93.9990234375,-95.8251953125,41.4501953125
54.8736498,-96.1962890625,-95.5810546875,38.8623046875
54.9031983,-97.5146484375,-96.5576171875,36.8603515625
54.9349777,-99.2236328125,-96.6552734375,33.2470703125
54.9647441,-100.5908203125,-98.2666015625,29.8291015625
54.9927054,-101.8603515625,-99.6337890625,26.8017578125
55.0260265,-101.4208984375,-100.1708984375,22.9443359375
55.0552111,-97.5634765625,-100.5126953125,23.4326171875
55.0877333,-93.2666015625,-99.0966796875,29.4384765625
55.1228673,-89.0673828125,-97.8271484375,38.4716796875
55.1446541,-85.0634765625,-96.6552734375,46.3818359375
55.1772336,-81.0595703125,-96.9482421875,54.0966796875
55.2059731,-77.8857421875,-96.0693359375,59.9560546875
55.2345111,-75.0048828125,-95.2392578125,63.6669921875
55.2658654,-74.1748046875,-95.6298828125,65.4248046875
55.2960511,-74.1748046875,-97.0458984375,62.5927734375
55.3251918,-74.6142578125,-97.9248046875,60.2490234375
55.3561312,-76.0791015625,-99.1943359375,58.1982421875
55.3858979,-77.3486328125,-98.9990234375,55.6103515625
55.4179816,-79.1552734375,-98.7060546875,52.4365234375
55.4467273,-80.9130859375,-99.6337890625,48.0908203125
55.4769794,-82.0849609375,-100.0732421875,43.6474609375
55.5069532,-85.2099609375,-101.0009765625,40.5712890625
55.5369735,-87.3095703125,-101.3916015625,36.6650390625
55.5691468,-89.3603515625,-102.2705078125,33.0517578125
55.5983503,-92.1923828125,-103.1982421875,29.6337890625
55.6272989,-94.3896484375,-102.7587890625,26.0693359375
55.6583841,-94.0478515625,-104.1748046875,22.7978515625
55.6892715,-90.5810546875,-103.9306640625,23.3349609375
55.7252013,-87.3095703125,-101.5869140625,29.2431640625
55.7503028,-83.7939453125,-100.7568359375,37.6416015625
55.7953073,-80.9130859375,-100.4150390625,45.1123046875
55.8080273,-77.2021484375,-99.8779296875,52.4853515625
55.8408119,-74.8583984375,-99.0966796875,58.0029296875
55.867996,-73.6865234375,-98.5107421875,62.4462890625
55.9082212,-73.7353515625,-98.9990234375,62.6416015625
55.9481139,-75.8837890625,-98.7060546875,61.5673828125
55.9692782,-77.4951171875,-99.6337890625,57.8564453125
55.9876954,-79.1064453125,-99.0478515625,56.0986328125
56.0213914,-81.8896484375,-98.9013671875,54.0966796875
56.0593119,-84.1357421875,-99.2431640625,51.5576171875
56.082962,-85.8447265625,-99.6826171875,48.2861328125
56.1123944,-88.3837890625,-99.2431640625,44.3798828125
56.1474302,-91.0205078125,-99.5849609375,40.8154296875
56.1720162,-94.0478515625,-99.9755859375,37.0068359375
56.209141,-96.5380859375,-100.1220703125,34.7119140625
56.2301773,-100.3466796875,-100.4638671875,30.0244140625
56.2679138,-102.7392578125,-101.1962890625,25.8251953125
56.289953,-104.2529296875,-101.2939453125,24.1650390625
56.3306315,-101.0791015625,-100.8056640625,26.0693359375
56.3522927,-97.4658203125,-98.5107421875,32.7099609375
56.3882442,-94.6337890625,-97.8271484375,39.9365234375
56.4123028,-91.5087890625,-96.6064453125,47.0654296875
56.4419293,-89.1162109375,-96.4599609375,53.1201171875
56.4825432,-87.0166015625,-95.5322265625,57.8564453125
56.5026972,-86.6748046875,-95.1416015625,61.8603515625
56.5451837,-86.7724609375,-95.1416015625,61.4697265625
56.5655838,-89.2138671875,-95.4345703125,60.1513671875
56.5946026,-90.8251953125,-95.4833984375,57.8564453125
56.6244784,-92.9248046875,-95.8251953125,55.4638671875
56.6705334,-94.5849609375,-96.0205078125,54.5849609375
56.683008,-95.9521484375,-95.8740234375,52.2900390625
56.732335,-97.5146484375,-96.8505859375,50.2880859375
56.752879,-98.3447265625,-97.6806640625,46.9189453125
56.7747663,-100.7861328125,-97.6318359375,44.7216796875
56.8136511,-101.9091796875,-97.5830078125,42.0361328125
56.835084,-102.9833984375,-98.1201171875,39.3505859375
56.8706327,-104.3994140625,-98.7060546875,35.4443359375
56.8925042,-106.4013671875,-99.6337890625,32.5634765625
