Timestamp,PPG_Forehead,PPG_Earlobe,PPG_Finger
0.00292210000000015,0.185546875,0.185546875,0.185546875
0.00420869999999995,0.185546875,0.185546875,0.185546875
0.00519990000000004,0.185546875,0.185546875,0.185546875
0.00617789999999996,0.185546875,0.185546875,0.185546875
0.00717359999999978,0.185546875,0.185546875,0.185546875
0.00814270000000006,0.185546875,0.185546875,0.185546875
0.00867780000000007,91.5380859375,86.1181640625,83.7255859375
0.00914169999999981,-65.9130859375,-85.2880859375,28.5498046875
0.00957100000000022,-65.4248046875,-82.7490234375,25.5712890625
0.0100047999999999,-63.5693359375,-77.7197265625,31.8701171875
0.0104481999999999,-58.8330078125,-72.0556640625,53.4033203125
0.0108817999999999,-56.2451171875,-68.2958984375,76.7919921875
0.0113191000000001,-55.1708984375,-67.1240234375,90.8056640625
0.0117527000000002,-54.8779296875,-66.1962890625,95.0537109375
0.0121904000000002,-54.1943359375,-64.0478515625,93.0517578125
0.0126400000000002,-54.5849609375,-62.8271484375,89.2431640625
0.0130694999999998,-54.9267578125,-63.8037109375,85.0439453125
0.0135089000000002,-55.5126953125,-63.6083984375,80.4541015625
0.0139353999999998,-55.7080078125,-62.9248046875,75.4736328125
0.0143407999999998,-55.1708984375,-62.4853515625,74.3505859375
0.0147042000000002,-54.8291015625,-62.4853515625,75.8154296875
0.0152119000000002,-54.7314453125,-61.8505859375,78.8427734375
0.0157519000000002,-55.3662109375,-62.3388671875,79.9658203125
0.0161315000000002,-55.5126953125,-63.3154296875,79.0869140625
0.0164914999999999,-56.8798828125,-64.4873046875,74.8388671875
0.0168514000000002,-57.9052734375,-65.6103515625,70.4931640625
0.0172175000000001,-58.4423828125,-67.0263671875,64.2919921875
0.0175858,-59.2724609375,-68.2470703125,59.0673828125
0.0179490000000002,-60.1513671875,-70.8349609375,54.6240234375
0.0183184000000001,-61.1279296875,-71.7138671875,49.7412109375
0.0186817000000001,-61.4697265625,-73.1787109375,46.6650390625
0.0190410999999999,-63.2763671875,-74.5947265625,43.8818359375
0.0194049000000001,-63.0322265625,-76.3037109375,41.4892578125
0.0197661,-64.3994140625,-77.7685546875,37.9248046875
0.0201299000000001,-64.3994140625,-78.4033203125,35.5322265625
0.0204924000000002,-64.5947265625,-74.1064453125,33.9697265625
0.0208529999999998,-61.2744140625,-68.7841796875,48.9111328125
0.0212188000000002,-57.4169921875,-64.0966796875,72.4462890625
0.0215850999999998,-55.2685546875,-61.7529296875,90.6103515625
0.0219529999999999,-54.0478515625,-61.0205078125,100.5224609375
0.0224918999999999,-54.3896484375,-59.6533203125,100.5224609375
0.0230815999999998,-54.0478515625,-58.5302734375,97.0556640625
0.023555,-54.0478515625,-58.2373046875,92.0751953125
0.0239389999999999,-54.2919921875,-58.4326171875,85.8251953125
0.0243011000000002,-54.5361328125,-58.7255859375,80.4052734375
0.0246521999999998,-55.3173828125,-57.3095703125,77.7197265625
0.0250075999999999,-54.9267578125,-57.6025390625,78.0126953125
0.0253646000000001,-55.0732421875,-57.2119140625,81.1865234375
0.0257185999999998,-54.5361328125,-57.7978515625,83.4326171875
0.0260718,-54.8291015625,-58.4326171875,82.5537109375
0.0264237000000001,-56.0986328125,-59.3603515625,79.5263671875
0.0267832000000001,-57.3681640625,-60.8251953125,75.5224609375
0.0271382999999998,-58.4912109375,-62.1435546875,69.9072265625
0.0274858,-59.5166015625,-63.9501953125,64.6337890625
0.0278849000000001,-60.2001953125,-65.2197265625,58.9697265625
0.0282355999999999,-61.0302734375,-67.4658203125,55.1611328125
0.0285871000000002,-61.7138671875,-68.5400390625,51.0595703125
0.0339146000000001,-62.2509765625,-70.0537109375,48.3740234375
0.0347672999999999,-62.2998046875,-71.8115234375,44.6142578125
0.0352027000000001,-63.1787109375,-73.6181640625,42.1240234375
0.0356437000000001,-63.4228515625,-72.5927734375,40.3173828125
0.0360597999999999,-62.4462890625,-67.1728515625,44.7607421875
0.0364810000000002,-58.8818359375,-62.4853515625,63.7060546875
0.0369199999999998,-55.4638671875,-60.5322265625,85.4833984375
0.0373743000000002,-54.4384765625,-59.6533203125,98.9599609375
0.0378050999999999,-53.6083984375,-58.6767578125,102.2802734375
0.0382368,-53.9013671875,-57.8955078125,100.4736328125
0.0386470000000001,-53.8525390625,-57.3583984375,95.2490234375
0.0390559000000001,-54.1943359375,-58.4326171875,89.6826171875
0.0394863000000001,-55.2197265625,-58.9208984375,82.8466796875
0.0398949000000002,-55.5126953125,-58.9697265625,77.7197265625
0.0403215000000001,-55.1708984375,-58.5791015625,77.0361328125
0.0407497000000001,-54.7314453125,-58.4814453125,79.2333984375
0.0411730000000001,-54.7314453125,-58.8232421875,81.9677734375
0.0415860000000001,-54.8779296875,-60.0439453125,83.3349609375
0.0420025000000002,-55.3173828125,-60.9716796875,82.0654296875
0.0424372000000002,-56.1962890625,-61.7529296875,78.0615234375
0.0428462000000001,-57.2216796875,-63.7548828125,72.6416015625
0.0432595,-58.6865234375,-64.9755859375,67.4169921875
0.0436854000000002,-59.1748046875,-66.5869140625,61.9482421875
0.0440949000000002,-60.5419921875,-68.3935546875,57.1142578125
0.0445245999999999,-61.1279296875,-69.9072265625,52.5732421875
0.0449316999999998,-62.5927734375,-71.6650390625,48.8623046875
0.045312,-62.7880859375,-73.6669921875,46.7626953125
0.0456612999999999,-63.2275390625,-74.7412109375,43.2470703125
0.0460123000000001,-63.3740234375,-73.2763671875,40.7568359375
0.0464110999999998,-63.2275390625,-67.9541015625,46.7626953125
0.0467930000000001,-58.2470703125,-62.9248046875,68.4423828125
0.0471466,-54.8779296875,-60.4345703125,91.0009765625
0.0475089999999998,-54.4873046875,-60.1416015625,105.8447265625
0.0478559999999999,-53.2177734375,-58.9697265625,110.5322265625
0.0482124000000002,-53.1689453125,-57.1630859375,108.5302734375
0.0486187,-53.4619140625,-56.9677734375,103.4033203125
0.0490167000000001,-53.8037109375,-58.6279296875,98.6669921875
0.0493918999999998,-54.1943359375,-58.9697265625,92.9052734375
0.0497421999999998,-54.6826171875,-58.6767578125,88.8037109375
0.0500919,-54.5361328125,-58.0419921875,87.7294921875
0.0504487,-53.2666015625,-57.1630859375,90.2685546875
0.0507965000000001,-53.6083984375,-58.2373046875,93.2958984375
0.0511548999999998,-53.9501953125,-58.9697265625,95.2001953125
0.0515215000000002,-54.3896484375,-60.2880859375,92.9052734375
0.0518667000000002,-55.2197265625,-60.6787109375,88.3642578125
0.0522263000000001,-56.6845703125,-61.8994140625,81.9189453125
0.0525755000000001,-56.8310546875,-63.6572265625,76.1083984375
0.0529231000000001,-57.0751953125,-65.3662109375,70.7373046875
0.0532843000000001,-57.8076171875,-67.4169921875,65.1220703125
0.0536349,-58.1982421875,-68.8330078125,60.6787109375
0.0539827000000002,-59.1748046875,-70.2490234375,56.1865234375
0.0543417000000002,-59.9560546875,-72.6904296875,52.9150390625
0.0546890000000002,-60.6396484375,-74.4970703125,49.5947265625
0.0550375000000001,-60.7861328125,-75.8642578125,46.9580078125
0.0554068000000001,-60.4443359375,-72.1533203125,43.6376953125
0.0557538000000002,-59.9072265625,-65.6103515625,54.1357421875
0.0561001000000001,-54.8291015625,-61.7529296875,80.0146484375
0.0564741999999998,-51.2646484375,-59.3603515625,103.6474609375
0.0568379999999999,-50.1416015625,-57.7978515625,117.3193359375
0.0572056999999999,-49.0185546875,-55.5517578125,120.8349609375
0.0575545000000002,-49.1162109375,-54.5263671875,117.1728515625
0.0579033,-47.8466796875,-53.2568359375,112.2412109375
0.0582684000000002,-47.9443359375,-54.5751953125,106.9189453125
0.058621,-47.4560546875,-55.3564453125,101.2060546875
0.0589732000000001,-48.3837890625,-55.3076171875,95.8837890625
0.0593504999999999,-48.6767578125,-55.4052734375,94.2724609375
0.0597048,-48.0419921875,-55.5517578125,95.4443359375
0.0600532999999999,-48.5302734375,-55.5517578125,97.4951171875
0.0604366000000001,-49.4580078125,-56.7236328125,97.6904296875
0.0607956000000001,-49.7021484375,-58.4326171875,95.2001953125
0.0611673000000001,-50.9716796875,-60.1904296875,90.4150390625
0.0615147,-51.8994140625,-61.3134765625,84.2626953125
0.0619120999999998,-53.4130859375,-63.7060546875,77.4755859375
0.0622771000000002,-54.0478515625,-64.8779296875,71.1767578125
0.0626383000000001,-55.0244140625,-66.8798828125,66.6357421875
0.0629878000000001,-55.9521484375,-68.4423828125,61.9482421875
0.0633349000000001,-56.9287109375,-70.5419921875,57.9443359375
0.0636990000000002,-57.0751953125,-72.8369140625,54.5263671875
0.0640494,-57.4169921875,-74.0576171875,51.0595703125
0.0643986999999999,-58.9794921875,-74.3505859375,48.6669921875
0.1009324,-58.7353515625,-69.2724609375,48.4716796875
0.1228402,-56.6845703125,-64.3408203125,65.3662109375
0.164233,-52.7294921875,-60.1904296875,88.5107421875
0.1852559,-49.5556640625,-59.4091796875,107.7001953125
0.2234599,-48.8232421875,-57.8466796875,115.5615234375
0.2441892,-48.0419921875,-56.9677734375,114.7802734375
0.2821533,-48.8232421875,-55.6494140625,109.5556640625
0.3034072,-48.2373046875,-56.7236328125,104.1845703125
0.3439621,-48.8232421875,-57.0166015625,97.5927734375
0.365137,-49.4091796875,-57.5048828125,91.6357421875
0.4091254,-49.7021484375,-57.5048828125,87.8759765625
0.4293677,-49.5068359375,-57.0166015625,87.6318359375
0.4724292,-49.6044921875,-57.7001953125,89.5849609375
0.4925629,-49.5556640625,-58.4814453125,90.6591796875
0.5285684,-49.7998046875,-59.6533203125,90.0244140625
0.5480844,-50.9716796875,-61.1181640625,86.5576171875
0.6005264,-51.4599609375,-62.9736328125,80.2099609375
0.6018097,-52.4365234375,-64.0966796875,75.1806640625
0.6338349,-54.0478515625,-66.3916015625,69.1748046875
0.677776,-54.0966796875,-67.9541015625,63.7060546875
0.6995776,-56.0498046875,-69.2236328125,58.7255859375
0.7379865,-56.2451171875,-71.4697265625,55.1611328125
0.7594292,-57.3681640625,-72.9345703125,51.2060546875
0.7991446,-58.2470703125,-74.4482421875,48.2763671875
0.8195587,-58.3447265625,-76.4990234375,45.9814453125
0.859768,-59.3701171875,-78.5498046875,42.5634765625
0.880525,-59.3212890625,-77.1337890625,38.7060546875
0.9165249,-60.2978515625,-71.6650390625,40.4638671875
0.9381593,-58.6865234375,-66.1962890625,59.7021484375
0.9910955,-53.5595703125,-62.4853515625,84.2626953125
1.0222261,-50.9716796875,-61.3134765625,101.4990234375
1.0264037,-49.7021484375,-59.2626953125,108.5302734375
1.0596984,-49.2138671875,-59.0673828125,107.4560546875
1.083467,-48.7255859375,-57.7978515625,102.4755859375
1.133532,-49.0673828125,-58.0908203125,96.9580078125
1.1454627,-49.1162109375,-58.4326171875,90.5126953125
1.1902252,-49.0185546875,-57.9931640625,84.0673828125
1.2095026,-49.9951171875,-57.2607421875,82.3095703125
1.2480636,-49.9951171875,-56.8212890625,83.3837890625
1.269139,-49.2138671875,-56.5771484375,85.4833984375
1.3105394,-49.7509765625,-56.8212890625,86.9482421875
1.3297117,-50.3369140625,-57.9443359375,84.8974609375
1.3687613,-50.8740234375,-58.9697265625,82.3095703125
1.3871409,-52.4365234375,-60.4833984375,77.7197265625
1.43035,-53.7060546875,-61.8994140625,71.2255859375
1.4505648,-55.1220703125,-63.9013671875,65.5615234375
1.487701,-56.1962890625,-65.1220703125,59.9462890625
1.5081797,-56.5380859375,-67.2216796875,56.3818359375
1.5482748,-56.8310546875,-68.1494140625,52.1337890625
1.5689491,-58.2958984375,-70.1025390625,48.2763671875
1.5959638,-58.5400390625,-72.2021484375,45.6884765625
1.6411685,-59.5654296875,-74.5947265625,42.8076171875
1.6604796,-59.5166015625,-73.9599609375,39.7314453125
1.7002603,-60.1025390625,-68.9306640625,40.2685546875
1.7204996,-59.1259765625,-63.7060546875,55.5517578125
1.7633453,-55.5126953125,-60.6787109375,78.8427734375
1.7765358,-51.7041015625,-59.9462890625,97.0068359375
1.8254133,-50.3857421875,-58.3837890625,104.5751953125
1.8363608,-50.0439453125,-57.9931640625,104.6240234375
1.8680461,-50.2880859375,-57.4560546875,99.3505859375
1.9140314,-50.0927734375,-58.0908203125,93.1005859375
1.9270151,-50.5810546875,-58.7255859375,85.4833984375
1.9719442,-51.1669921875,-58.4814453125,78.8916015625
1.991543,-51.2158203125,-58.6767578125,77.2314453125
2.035488,-51.4599609375,-58.4814453125,78.2568359375
2.0514282,-50.6787109375,-58.9697265625,81.9189453125
2.0798909,-50.4833984375,-59.5556640625,83.6279296875
2.1248793,-51.1669921875,-61.1669921875,82.4072265625
2.140839,-51.6552734375,-61.8017578125,79.9658203125
2.1698654,-52.9248046875,-63.6083984375,74.9365234375
2.2141546,-54.4873046875,-65.8544921875,69.1748046875
2.2323256,-55.3173828125,-67.3681640625,64.4873046875
2.2735956,-57.1240234375,-69.1259765625,59.5068359375
2.2887372,-56.6845703125,-70.3955078125,54.5751953125
2.3198535,-57.4169921875,-72.3974609375,51.0595703125
2.3611573,-58.3447265625,-74.3505859375,47.0556640625
2.382637,-59.9560546875,-75.0341796875,44.5166015625
2.4117034,-59.5166015625,-75.9619140625,42.0751953125
2.4387719,-60.0048828125,-72.1533203125,41.0986328125
2.4746412,-60.0048828125,-66.5869140625,52.6708984375
2.5036979,-57.1728515625,-62.7783203125,76.4013671875
2.5299301,-52.7294921875,-60.9716796875,96.4208984375
2.56287,-50.3369140625,-60.3369140625,107.7001953125
2.593199,-50.2392578125,-59.7021484375,109.2138671875
2.6221661,-49.7509765625,-59.7509765625,104.6240234375
2.6535243,-50.1416015625,-58.9697265625,98.9599609375
2.6917497,-49.7509765625,-60.4833984375,91.9287109375
2.711007,-50.9716796875,-60.0439453125,84.5068359375
2.7429727,-51.6552734375,-59.9951171875,80.8935546875
2.7736711,-51.2646484375,-59.5068359375,80.5517578125
2.7984534,-50.7763671875,-59.9951171875,83.7744140625
2.8312139,-51.1669921875,-60.7275390625,85.8740234375
2.8619355,-50.9716796875,-62.6318359375,86.8017578125
2.8944931,-51.2158203125,-63.0224609375,83.3349609375
2.9228027,-52.2412109375,-64.9755859375,79.1845703125
2.9539781,-54.0478515625,-66.0986328125,73.1298828125
2.984288,-55.5126953125,-67.4169921875,67.2705078125
3.0113186,-56.0986328125,-70.0537109375,62.4853515625
3.0414287,-57.1240234375,-71.1767578125,57.4072265625
3.0743832,-57.7099609375,-73.1298828125,52.3291015625
3.1034599,-58.9306640625,-75.4736328125,48.8623046875
3.1353539,-59.4677734375,-76.7919921875,45.5419921875
3.1646018,-60.0048828125,-78.7451171875,42.3681640625
3.1946246,-60.6396484375,-78.6474609375,39.4873046875
3.2246484,-60.6884765625,-73.5205078125,39.0966796875
3.2556812,-60.3466796875,-68.0029296875,54.9658203125
3.2836532,-57.2216796875,-64.7314453125,79.4775390625
3.3156027,-53.1201171875,-62.7294921875,100.0830078125
3.3451591,-50.5322265625,-61.1669921875,110.4833984375
3.3752919,-49.7509765625,-59.6533203125,111.8994140625
3.4082084,-48.8232421875,-59.1650390625,106.8212890625
3.4407225,-49.0185546875,-59.1162109375,101.4013671875
3.4641979,-49.3603515625,-59.7021484375,95.7373046875
3.497172,-49.0185546875,-59.3603515625,89.2431640625
3.5261067,-49.6044921875,-58.9208984375,86.0205078125
3.5583395,-49.9951171875,-59.3603515625,85.5810546875
3.5894393,-49.5556640625,-58.3349609375,87.9248046875
3.616567,-49.2138671875,-59.4580078125,89.4873046875
3.6492163,-49.5068359375,-61.2158203125,89.1455078125
3.6781395,-49.2138671875,-62.0947265625,86.2158203125
3.7075666,-50.6787109375,-63.8525390625,81.1865234375
3.7373991,-51.4599609375,-65.2197265625,75.2783203125
3.7694236,-53.3642578125,-67.5634765625,69.0771484375
3.7954309,-54.2919921875,-69.0283203125,63.3642578125
3.829084,-55.6591796875,-71.0302734375,57.5537109375
3.8583577,-55.9033203125,-72.6904296875,54.0380859375
3.8863107,-56.3916015625,-74.3017578125,49.9853515625
3.9182579,-57.5634765625,-76.4013671875,46.8115234375
3.947786,-58.1494140625,-78.6474609375,43.7353515625
3.9965501,-58.2470703125,-79.8193359375,40.1220703125
4.0163812,-58.8818359375,-79.7216796875,36.7529296875
4.0380444,-59.4677734375,-74.3017578125,36.1181640625
4.069638,-59.9072265625,-68.6376953125,52.1826171875
4.1006417,-55.9521484375,-64.7314453125,76.5966796875
4.1293563,-51.5576171875,-63.2177734375,97.7880859375
4.1782189,-49.2138671875,-62.0947265625,107.2607421875
4.1994033,-48.1884765625,-60.3857421875,108.6279296875
4.2358757,-47.8466796875,-58.9697265625,103.7451171875
4.2575331,-47.2607421875,-59.3603515625,99.2529296875
4.2935153,-47.7978515625,-60.3857421875,93.4912109375
4.3137277,-47.8466796875,-59.7021484375,87.9248046875
4.341808,-47.7978515625,-59.7509765625,83.7744140625
4.368229,-48.4326171875,-58.8720703125,82.6513671875
4.4154541,-47.7490234375,-59.4091796875,85.1416015625
4.4363102,-47.7001953125,-60.2392578125,86.3623046875
4.4748892,-47.7001953125,-61.0693359375,85.9716796875
4.4950796,-47.7978515625,-62.4365234375,83.1396484375
4.534689,-49.3603515625,-63.6083984375,77.8173828125
4.5568045,-50.1904296875,-65.5126953125,70.9326171875
4.5822543,-51.5087890625,-66.9775390625,64.6826171875
4.6095995,-52.7783203125,-68.5888671875,59.4091796875
4.6673615,-53.7060546875,-70.8837890625,54.0869140625
4.6969867,-54.3408203125,-71.3720703125,50.2783203125
4.7000136,-55.1220703125,-73.5693359375,45.8837890625
4.7289961,-55.5126953125,-75.2783203125,43.7841796875
4.7617394,-55.7568359375,-77.2314453125,39.9267578125
4.8096572,-56.7822265625,-78.8427734375,36.1669921875
4.8398912,-57.1240234375,-79.2822265625,32.5537109375
4.8538076,-57.8564453125,-74.7900390625,29.8193359375
4.8952533,-58.2470703125,-69.0771484375,39.1455078125
4.916286,-57.3193359375,-64.6337890625,61.5576171875
4.9574413,-52.2412109375,-62.5341796875,84.7509765625
4.9774407,-49.2138671875,-60.8740234375,96.8115234375
5.0195003,-47.5048828125,-59.7509765625,100.5712890625
5.0387456,-46.5283203125,-58.1884765625,96.8115234375
5.0742456,-46.4306640625,-57.8466796875,91.3916015625
5.0956548,-46.2353515625,-58.3837890625,85.9716796875
5.1401818,-46.0400390625,-58.5302734375,78.8916015625
5.1608246,-46.5771484375,-58.4814453125,74.4482421875
5.1972024,-47.2607421875,-57.7001953125,72.3974609375
5.219362,-47.1630859375,-57.5048828125,74.8388671875
5.2586099,-46.7724609375,-58.5791015625,76.4013671875
5.2794925,-46.5771484375,-59.2138671875,76.3525390625
5.3136144,-46.5771484375,-60.6787109375,73.4228515625
5.3343576,-47.8466796875,-62.1923828125,69.0771484375
5.3791787,-49.7509765625,-63.6572265625,63.3642578125
5.3997432,-50.7763671875,-64.9755859375,57.3583984375
5.4420744,-52.0458984375,-66.4892578125,50.8642578125
5.4621901,-53.0224609375,-68.1982421875,46.1767578125
5.5003772,-53.9501953125,-69.8583984375,41.9287109375
5.5211662,-54.7314453125,-71.5185546875,37.3876953125
5.5605025,-55.7568359375,-73.5205078125,34.3115234375
5.5809423,-56.1474609375,-75.0830078125,30.8935546875
5.6072084,-56.9775390625,-77.1826171875,28.6474609375
5.6352819,-56.9287109375,-77.8173828125,24.5458984375
5.6844072,-58.1494140625,-74.0087890625,22.0068359375
5.7045933,-58.1982421875,-68.7841796875,29.0869140625
5.7244923,-57.7587890625,-64.6337890625,49.7412109375
5.7567989,-53.8525390625,-63.2177734375,72.8369140625
5.8181985,-49.7998046875,-62.3388671875,86.8994140625
5.8199176,-48.6279296875,-61.3134765625,91.3916015625
5.8487376,-47.4072265625,-60.4833984375,87.2412109375
5.8781826,-47.2607421875,-60.7763671875,81.6259765625
5.9095512,-47.8466796875,-61.4599609375,75.5712890625
5.9597689,-47.5537109375,-62.2900390625,69.2236328125
5.9811439,-47.9931640625,-60.8251953125,63.8037109375
5.9998983,-48.8232421875,-60.3857421875,62.6806640625
6.0278537,-48.8720703125,-60.2880859375,64.5849609375
6.0575336,-48.1884765625,-61.6064453125,66.7822265625
6.1070089,-48.6767578125,-62.2412109375,67.9541015625
6.1271458,-49.1162109375,-64.5361328125,65.0732421875
6.1671245,-49.5556640625,-65.5126953125,61.4111328125
6.1815352,-50.5810546875,-66.8310546875,55.5517578125
6.2246443,-51.7529296875,-68.9306640625,49.2041015625
6.2473465,-52.6806640625,-70.4931640625,43.5888671875
6.2819624,-53.7548828125,-72.2509765625,38.5595703125
6.3021166,-54.3408203125,-74.3505859375,35.0927734375
6.3312303,-55.4638671875,-76.4990234375,30.6005859375
6.3823837,-56.4892578125,-77.6220703125,27.4755859375
6.4139495,-56.7822265625,-80.1123046875,24.2041015625
6.421948,-57.2216796875,-81.4306640625,21.2255859375
6.4660919,-57.4169921875,-79.8193359375,17.6611328125
6.4861505,-58.3447265625,-74.2041015625,19.7607421875
6.5273789,-59.2724609375,-69.0771484375,37.0458984375
6.5493586,-56.5380859375,-66.7822265625,61.2646484375
6.5848232,-52.1435546875,-65.6591796875,81.1376953125
6.605881,-49.7021484375,-64.1455078125,89.5361328125
6.6449375,-47.7978515625,-64.1943359375,88.8525390625
6.6656147,-47.7490234375,-62.9736328125,83.6279296875
6.7035762,-48.2373046875,-63.3154296875,78.0126953125
6.7228441,-48.2861328125,-64.2431640625,71.2255859375
6.7734035,-48.6279296875,-64.0966796875,64.2431640625
6.7946121,-49.3603515625,-62.9248046875,61.3623046875
6.8115465,-49.5068359375,-62.2412109375,61.4111328125
6.8599475,-49.4091796875,-62.6806640625,64.7802734375
6.8713494,-49.5068359375,-63.9501953125,67.0751953125
6.9018681,-49.0673828125,-64.6337890625,65.8056640625
6.9325133,-49.7509765625,-66.4404296875,62.4365234375
6.9625754,-50.5322265625,-67.6611328125,56.7724609375
7.0097711,-51.8017578125,-69.1748046875,51.3525390625
7.024829,-52.6806640625,-71.0302734375,45.2490234375
7.0669004,-53.4619140625,-72.5927734375,39.3896484375
7.0889983,-54.1943359375,-74.2529296875,34.7509765625
7.1315237,-54.8779296875,-76.4013671875,30.5517578125
7.1415773,-55.9521484375,-77.8662109375,27.7685546875
7.1760108,-57.0263671875,-80.0146484375,23.9599609375
7.2028495,-57.4169921875,-81.2353515625,20.8349609375
7.2304282,-57.7587890625,-83.3349609375,17.7099609375
7.2657495,-58.3447265625,-82.7978515625,14.4873046875
7.2926504,-59.0283203125,-77.2314453125,14.3408203125
7.3369815,-60.0048828125,-71.6162109375,28.4521484375
7.3580315,-59.1748046875,-68.1494140625,54.1357421875
7.4032761,-54.9267578125,-66.0986328125,78.0126953125
7.4176127,-50.3857421875,-65.5126953125,90.8056640625
7.4446861,-48.1884765625,-64.0478515625,92.1240234375
7.4963551,-48.0419921875,-63.2177734375,88.7060546875
7.5276547,-48.8720703125,-62.9248046875,82.7490234375
7.5356799,-48.4326171875,-64.1943359375,77.4755859375
7.5646588,-48.2373046875,-64.3896484375,71.0302734375
7.597628,-48.9208984375,-64.0966796875,66.6845703125
7.6429975,-49.5556640625,-63.0224609375,65.8544921875
7.6543801,-49.5556640625,-63.3154296875,68.1005859375
7.6873501,-48.5302734375,-64.2431640625,70.3955078125
7.7164206,-49.3115234375,-64.8291015625,70.4931640625
7.7465568,-49.9462890625,-66.0986328125,67.3681640625
7.7756959,-51.5576171875,-66.9775390625,62.1923828125
7.8051987,-52.1435546875,-69.5654296875,55.6494140625
7.8373288,-53.6572265625,-70.4931640625,49.7412109375
7.8690032,-53.5107421875,-72.7880859375,44.2724609375
7.8957277,-54.5849609375,-74.1064453125,39.2431640625
7.9259789,-55.3173828125,-75.1318359375,35.0439453125
7.9583078,-57.3193359375,-76.8896484375,31.0888671875
7.9840966,-58.2958984375,-78.6962890625,27.9150390625
8.0201907,-58.5888671875,-79.9658203125,24.8876953125
8.0502229,-58.2958984375,-82.0654296875,21.5185546875
8.0771823,-59.4677734375,-82.5537109375,17.9541015625
8.1098904,-60.2490234375,-77.6220703125,16.0498046875
8.1374812,-61.3232421875,-71.4208984375,25.7666015625
8.1695213,-61.1279296875,-67.7099609375,48.6181640625
8.2017442,-57.7587890625,-66.2939453125,71.9091796875
8.2279457,-52.6318359375,-64.8779296875,84.9951171875
8.2629865,-49.9951171875,-63.4619140625,87.8271484375
8.2920652,-49.2626953125,-62.1923828125,84.4580078125
8.3310388,-49.2626953125,-61.6552734375,78.6962890625
8.3502207,-49.2138671875,-63.0712890625,73.6669921875
8.3802982,-48.7255859375,-63.3642578125,66.9775390625
8.4073186,-48.7255859375,-62.3388671875,62.5830078125
8.4406119,-49.3115234375,-62.8271484375,61.2158203125
8.4686221,-50.0927734375,-62.9248046875,62.7783203125
8.4987242,-49.8974609375,-63.3154296875,65.2197265625
8.5316039,-49.7509765625,-65.2197265625,65.2685546875
8.5586761,-49.9951171875,-66.6845703125,61.8994140625
8.5896335,-50.2392578125,-68.6376953125,57.7978515625
8.6236803,-50.9716796875,-70.3466796875,52.3291015625
8.6513919,-52.2412109375,-72.2021484375,46.9580078125
8.6825372,-53.2666015625,-74.2041015625,41.6357421875
8.7117553,-54.2919921875,-76.3525390625,36.3623046875
8.7388259,-54.9267578125,-78.8916015625,32.0654296875
8.7727763,-55.8056640625,-80.9912109375,27.9638671875
8.8038747,-56.5380859375,-83.0419921875,25.5224609375
8.8297238,-56.5380859375,-84.4091796875,21.7138671875
8.8628327,-56.3427734375,-85.3369140625,19.8583984375
8.8918936,-56.7822265625,-84.7021484375,16.7333984375
8.9208169,-57.3681640625,-79.4775390625,13.4130859375
8.9524159,-58.1005859375,-70.7373046875,19.4677734375
8.9814859,-58.9794921875,-65.0732421875,39.5361328125
9.0131436,-56.2939453125,-61.2158203125,62.4365234375
9.0430673,-51.3134765625,-59.0185546875,77.1337890625
9.0738403,-47.8466796875,-56.6259765625,81.8701171875
9.1035652,-46.5283203125,-55.8447265625,79.6728515625
9.1355789,-45.5517578125,-55.0634765625,74.4970703125
9.1640936,-44.9658203125,-56.8701171875,68.9306640625
9.1940218,-44.0869140625,-56.5771484375,62.6318359375
9.2221635,-43.4521484375,-56.1376953125,57.5048828125
9.2551517,-45.0146484375,-55.8447265625,56.3818359375
9.2852845,-44.9169921875,-56.5283203125,57.2607421875
9.315283,-44.1845703125,-57.6513671875,59.2138671875
9.3410749,-44.1357421875,-58.9697265625,60.4345703125
9.393922,-44.4775390625,-61.0205078125,58.9697265625
9.4148928,-45.4541015625,-61.6552734375,54.7705078125
9.4530093,-46.6259765625,-63.6083984375,49.3505859375
9.4730317,-47.7978515625,-64.9755859375,44.3212890625
9.494775,-48.5302734375,-66.7822265625,38.6572265625
9.527742,-49.1650390625,-68.9794921875,34.0185546875
9.5742418,-49.6044921875,-71.9091796875,29.3310546875
9.5949175,-50.8251953125,-73.2275390625,25.4736328125
9.6324287,-51.8505859375,-75.5224609375,21.7138671875
9.653801,-52.3388671875,-76.8408203125,19.0771484375
9.674718,-52.9736328125,-75.2294921875,16.3427734375
9.7060301,-53.5595703125,-70.5908203125,16.6845703125
9.7526575,-53.9501953125,-65.7568359375,32.3583984375
9.7735131,-54.1943359375,-63.0224609375,54.5263671875
9.7955519,-50.7763671875,-62.1923828125,72.7880859375
9.8256511,-46.4794921875,-61.1669921875,80.9423828125
9.8706986,-44.1845703125,-60.4345703125,80.1611328125
9.8912825,-43.7939453125,-60.2880859375,74.5947265625
9.9152403,-43.5009765625,-60.7275390625,68.1494140625
9.9461556,-43.5986328125,-61.8017578125,60.6298828125
9.9953888,-43.7451171875,-61.4111328125,53.7939453125
10.0156748,-44.4287109375,-60.7275390625,51.5478515625
10.0506208,-44.8193359375,-60.8740234375,51.9873046875
10.0720926,-45.5517578125,-61.3623046875,55.5517578125
10.1011798,-45.3076171875,-62.4853515625,56.3818359375
10.1544064,-45.3564453125,-63.3642578125,55.9912109375
10.1864515,-45.6005859375,-64.6337890625,52.4755859375
10.190878,-45.6982421875,-65.9521484375,47.6904296875
10.2183712,-47.3095703125,-67.2216796875,42.1240234375
10.2468845,-48.1396484375,-69.8583984375,37.2412109375
10.2973393,-49.3603515625,-71.4208984375,32.0654296875
10.3166793,-49.9462890625,-72.9345703125,27.0361328125
10.3538097,-51.4111328125,-75.3271484375,22.5927734375
10.3738586,-52.0947265625,-76.6455078125,19.3212890625
10.4008627,-53.4130859375,-76.3525390625,15.6103515625
10.4266344,-53.7548828125,-71.6162109375,14.5849609375
10.4617465,-55.1220703125,-66.5869140625,26.4990234375
10.4879207,-54.5849609375,-63.9990234375,49.6435546875
10.5190422,-52.7294921875,-61.9482421875,70.8837890625
10.5530491,-49.4091796875,-61.4111328125,81.3818359375
10.5796422,-45.9423828125,-60.2392578125,82.6513671875
10.6067581,-45.0146484375,-60.5810546875,77.7685546875
10.639679,-44.6728515625,-61.8017578125,70.9814453125
10.6695282,-44.6240234375,-62.1435546875,64.1943359375
10.7180021,-44.6728515625,-62.9736328125,55.4052734375
10.7393837,-45.3076171875,-62.1923828125,51.3525390625
10.7744905,-45.4052734375,-61.8994140625,51.3525390625
10.7947461,-45.8935546875,-62.0947265625,54.5263671875
10.8207882,-45.5517578125,-62.2900390625,56.5283203125
10.8501905,-45.6494140625,-64.4873046875,56.5771484375
10.8844707,-45.5517578125,-64.9755859375,53.8427734375
10.9104695,-46.1865234375,-67.5146484375,49.7900390625
10.9425632,-47.7490234375,-68.6376953125,44.0283203125
10.9715262,-49.2626953125,-70.7373046875,38.5107421875
11.0028667,-49.8974609375,-72.3974609375,33.3837890625
11.0341303,-51.1669921875,-74.6435546875,28.2568359375
11.0635473,-51.8505859375,-76.8408203125,24.4482421875
11.0923572,-53.1689453125,-77.9638671875,20.3466796875
11.1254872,-53.9990234375,-80.2587890625,16.1474609375
11.1726306,-54.6826171875,-81.5283203125,13.3642578125
11.1924616,-54.8779296875,-80.5517578125,10.3857421875
11.2159225,-55.3662109375,-75.4736328125,10.5810546875
11.2427011,-56.1962890625,-70.6884765625,26.0595703125
11.2744203,-56.8310546875,-67.4658203125,51.9384765625
11.3202341,-54.8291015625,-66.0986328125,74.1552734375
11.3392076,-49.9951171875,-64.4873046875,84.8486328125
11.3779336,-46.5771484375,-64.2919921875,84.7509765625
11.3986933,-45.4052734375,-62.3876953125,79.7705078125
11.4230492,-45.5517578125,-62.8271484375,72.9833984375
11.4515694,-45.6982421875,-63.9501953125,65.5126953125
11.4836552,-45.1123046875,-63.0712890625,58.3349609375
11.5173654,-45.6982421875,-62.5341796875,54.9658203125
11.5471936,-46.5283203125,-61.7529296875,55.3076171875
11.5922916,-46.5283203125,-61.7041015625,58.2373046875
11.6130025,-46.2353515625,-62.2900390625,61.0205078125
11.6532916,-45.9912109375,-63.5595703125,60.9716796875
11.6633064,-45.8447265625,-64.8291015625,57.3583984375
11.7081404,-46.3330078125,-66.4892578125,53.2568359375
11.7310564,-47.2119140625,-68.0517578125,47.2021484375
11.756274,-48.8232421875,-69.6142578125,40.5126953125
11.7882621,-49.1650390625,-71.8115234375,35.8251953125
11.8172706,-49.9951171875,-73.7158203125,30.4541015625
11.8452002,-51.8505859375,-76.1572265625,26.2060546875
11.8764865,-52.2900390625,-77.6708984375,22.3486328125
11.9085238,-53.7060546875,-78.9404296875,18.8330078125
11.9344705,-54.9267578125,-80.4541015625,15.5126953125
11.9683677,-55.2197265625,-78.3544921875,13.7060546875
11.9972228,-56.1474609375,-72.5439453125,14.9755859375
12.0263995,-56.6357421875,-68.7841796875,33.0419921875
12.0856889,-56.8798828125,-66.7822265625,59.1162109375
12.0871958,-54.9267578125,-65.4638671875,78.0126953125
12.1195891,-50.7275390625,-65.6591796875,86.6064453125
12.1635111,-47.3583984375,-65.2685546875,84.8486328125
12.1854689,-46.8212890625,-64.6826171875,79.4775390625
12.211557,-46.5283203125,-65.7080078125,71.8603515625
12.2395753,-46.7724609375,-65.5126953125,63.6572265625
12.2681135,-47.2607421875,-65.7568359375,55.6982421875
12.2994257,-47.3095703125,-64.4873046875,54.1845703125
12.3294974,-47.8955078125,-64.5849609375,56.3330078125
12.3596493,-48.3349609375,-64.6337890625,59.3115234375
12.3897826,-48.0419921875,-65.8056640625,61.2646484375
12.4358341,-47.3583984375,-67.0263671875,61.4111328125
12.4578421,-47.6513671875,-68.5888671875,58.0419921875
12.5086874,-48.2373046875,-70.2490234375,53.7939453125
12.5098085,-48.5791015625,-71.8603515625,47.3974609375
12.5413181,-50.2880859375,-73.9111328125,42.5146484375
12.569423,-51.5576171875,-75.6201171875,37.3876953125
12.605188,-52.6318359375,-78.1591796875,32.4560546875
12.6320501,-53.0712890625,-79.5263671875,27.9638671875
12.6743865,-54.2919921875,-81.2841796875,24.7900390625
12.6948668,-54.7802734375,-83.1396484375,21.2255859375
12.740681,-54.9755859375,-79.3798828125,19.1748046875
12.75074,-55.5615234375,-74.2529296875,23.1787109375
12.7796925,-56.6845703125,-70.3955078125,44.9560546875
12.8122312,-56.6845703125,-68.4423828125,71.8115234375
12.8392535,-54.7802734375,-67.7587890625,90.1708984375
12.8670629,-51.1181640625,-67.7587890625,97.1044921875
12.9021001,-48.1396484375,-65.8544921875,94.5654296875
12.9299996,-46.9677734375,-66.4404296875,88.0712890625
12.9629128,-46.3330078125,-67.2705078125,80.8935546875
12.9941759,-47.4560546875,-67.2216796875,71.8115234375
13.019063,-46.8212890625,-66.6357421875,64.8779296875
13.0519782,-47.9443359375,-66.3916015625,63.4619140625
13.0810374,-48.9697265625,-65.5615234375,66.6357421875
13.1119396,-49.3115234375,-66.1962890625,70.6396484375
13.1442458,-48.5791015625,-66.7333984375,73.0322265625
13.1712981,-48.7744140625,-68.1982421875,71.7138671875
13.2042916,-48.7255859375,-69.2724609375,68.1494140625
13.2356232,-48.7255859375,-70.4931640625,63.5595703125
13.2621435,-49.7998046875,-72.1533203125,57.2607421875
13.2921621,-51.4111328125,-73.7646484375,51.1572265625
13.3231348,-52.3876953125,-75.1806640625,46.0302734375
13.3536375,-52.7294921875,-76.8896484375,42.1240234375
13.384614,-53.7060546875,-78.8916015625,38.0224609375
13.4145892,-54.6337890625,-81.0888671875,34.2138671875
13.4436174,-55.8544921875,-82.2119140625,30.8447265625
13.4757138,-56.1962890625,-80.8935546875,28.5986328125
13.5051998,-56.3916015625,-74.0576171875,29.8681640625
13.5332144,-56.2451171875,-68.6376953125,49.3017578125
13.5651873,-57.7587890625,-65.2685546875,80.3076171875
13.5931593,-56.8310546875,-63.7548828125,106.6259765625
13.6263835,-52.8759765625,-61.8994140625,118.8330078125
13.6563806,-49.0185546875,-60.6787109375,119.5166015625
13.6833449,-47.2607421875,-59.1650390625,115.1220703125
13.7117446,-46.9189453125,-59.6533203125,108.8232421875
13.7452586,-46.2841796875,-58.7255859375,102.5244140625
13.7732196,-47.1142578125,-58.7744140625,95.7861328125
13.8062266,-46.4794921875,-57.2119140625,91.8798828125
13.8372459,-47.2119140625,-56.4306640625,93.6376953125
13.8652581,-47.5048828125,-56.4794921875,97.4462890625
13.898245,-47.6513671875,-57.3095703125,100.8154296875
13.9253482,-47.9443359375,-58.3837890625,100.6201171875
13.9616963,-47.0166015625,-59.5556640625,98.0322265625
13.9876971,-47.3583984375,-59.5556640625,92.5146484375
14.0146278,-48.1396484375,-60.9228515625,86.8994140625
14.0477344,-48.8720703125,-63.3154296875,80.5517578125
14.0783585,-49.6533203125,-64.3896484375,75.3271484375
14.1052596,-49.7998046875,-66.4404296875,69.4189453125
14.1372061,-50.6787109375,-68.1005859375,66.0009765625
14.1673334,-51.5087890625,-69.2236328125,62.0947265625
14.1973532,-52.6318359375,-70.7861328125,59.6533203125
14.2287272,-53.7548828125,-72.6416015625,56.6259765625
14.2589434,-53.3154296875,-70.4443359375,54.2822265625
14.2898957,-53.3154296875,-64.3408203125,55.4052734375
14.3180429,-53.9501953125,-57.8955078125,74.5947265625
14.3489676,-54.1943359375,-54.5751953125,107.1142578125
14.377917,-54.3408203125,-52.3779296875,133.1884765625
14.4078945,-50.8740234375,-50.5224609375,146.8603515625
14.4399443,-46.1865234375,-48.4716796875,148.1298828125
14.465869,-44.6728515625,-46.7626953125,143.1494140625
14.5031737,-44.0380859375,-46.9091796875,137.9248046875
14.5291752,-43.7939453125,-46.9580078125,130.7470703125
14.5622305,-43.9404296875,-46.9091796875,124.0087890625
14.5902167,-44.1357421875,-45.3466796875,120.9326171875
14.6193965,-44.2822265625,-44.7119140625,120.9326171875
14.6513717,-44.8681640625,-44.1748046875,124.5458984375
14.6793652,-45.0146484375,-45.0048828125,126.9873046875
14.7093592,-44.1845703125,-46.3720703125,126.5966796875
14.7423859,-44.1357421875,-47.1533203125,122.4462890625
14.7697478,-44.3310546875,-48.5205078125,116.7333984375
14.8029675,-44.3798828125,-49.5458984375,110.4345703125
14.8321487,-44.5263671875,-50.8642578125,103.9892578125
14.8604619,-45.6982421875,-51.9873046875,97.6904296875
14.8885229,-47.2119140625,-53.1591796875,92.2705078125
14.9204773,-48.4326171875,-54.7216796875,87.4853515625
14.948518,-48.8720703125,-56.0888671875,84.4091796875
14.9824993,-48.9208984375,-57.9443359375,81.3330078125
15.0119358,-50.1416015625,-58.3837890625,77.9150390625
15.0408648,-50.7763671875,-58.3837890625,74.0576171875
15.0714452,-50.4345703125,-53.1103515625,71.6162109375
15.1024311,-50.9716796875,-46.9580078125,82.4560546875
15.1324183,-52.1435546875,-42.7587890625,109.2626953125
15.1630759,-51.9482421875,-40.5615234375,134.7021484375
15.1931694,-49.9951171875,-38.9501953125,149.2529296875
15.2249529,-45.9912109375,-36.5087890625,152.3779296875
15.2525115,-42.5732421875,-35.6298828125,147.7392578125
15.2825792,-41.9873046875,-34.7998046875,142.1728515625
15.3316323,-41.8408203125,-35.0439453125,135.4833984375
15.3446142,-42.1826171875,-35.2392578125,128.9404296875
15.3715649,-41.6943359375,-34.6533203125,123.3251953125
15.4056524,-41.4501953125,-33.8232421875,122.7392578125
15.4328844,-41.8896484375,-33.5302734375,124.4970703125
15.4625631,-42.5244140625,-34.2138671875,126.2548828125
15.4968437,-41.7431640625,-35.0927734375,126.4013671875
15.5226347,-41.9384765625,-36.4111328125,122.6904296875
15.5517212,-41.6943359375,-37.7783203125,116.8798828125
15.5856368,-42.0849609375,-38.7548828125,110.4345703125
15.6147894,-42.3779296875,-40.5615234375,104.9169921875
15.64566,-43.4521484375,-42.3193359375,98.3251953125
15.6745572,-44.2822265625,-44.2236328125,92.4658203125
15.7027243,-45.8935546875,-45.2001953125,88.6572265625
15.7377561,-46.3818359375,-47.0556640625,85.5810546875
15.7669178,-47.3095703125,-48.6669921875,82.4072265625
15.7950131,-47.5537109375,-50.0830078125,78.4521484375
15.826973,-48.5302734375,-50.2783203125,76.1083984375
15.8540316,-48.5791015625,-45.5419921875,73.2763671875
15.8849801,-48.6279296875,-39.9755859375,82.4560546875
15.9190267,-49.6533203125,-36.4599609375,104.8193359375
15.9439868,-49.7998046875,-34.3603515625,126.3037109375
15.9729735,-47.9931640625,-33.4814453125,138.3642578125
16.0063503,-44.4287109375,-31.7236328125,140.0732421875
16.0356269,-40.9619140625,-30.7470703125,135.4833984375
16.0637125,-39.8876953125,-31.2353515625,129.2333984375
16.0976364,-40.5224609375,-31.5283203125,123.6181640625
16.1256424,-40.1318359375,-31.4794921875,116.0498046875
16.1596913,-39.4482421875,-30.9423828125,112.5341796875
16.185655,-39.9365234375,-30.7470703125,112.3388671875
16.2157238,-40.7177734375,-30.9423828125,114.5849609375
16.246903,-40.8154296875,-32.1630859375,116.4404296875
16.2763509,-40.1806640625,-32.9443359375,115.6103515625
16.3063894,-39.5458984375,-34.8974609375,111.9970703125
16.3375485,-39.7412109375,-36.0693359375,107.2607421875
16.3686307,-40.4248046875,-37.8271484375,100.8642578125
16.3992529,-40.9130859375,-39.2919921875,95.0537109375
16.4274721,-42.1337890625,-40.8056640625,89.5849609375
16.4562517,-43.0126953125,-42.4658203125,84.9462890625
16.485022,-43.9892578125,-44.1748046875,81.0400390625
16.5211741,-43.8427734375,-45.9814453125,77.7197265625
16.5469227,-45.4052734375,-47.7392578125,74.3994140625
16.5791023,-45.9423828125,-47.1044921875,71.4208984375
16.6101816,-46.4306640625,-42.5634765625,69.5654296875
16.6371307,-47.0654296875,-37.3876953125,77.6708984375
16.6691404,-47.1142578125,-33.0908203125,99.3017578125
16.7011608,-47.1630859375,-31.5771484375,120.7861328125
16.7271508,-45.8935546875,-30.5029296875,131.5283203125
16.7602694,-41.5478515625,-28.4033203125,134.1650390625
16.7911711,-38.3740234375,-28.3544921875,130.0146484375
16.8231608,-38.0322265625,-27.8662109375,124.2041015625
16.8512764,-37.3486328125,-29.5263671875,119.4189453125
16.880229,-37.2998046875,-28.9892578125,112.5341796875
16.9141808,-37.5927734375,-29.2822265625,109.0185546875
16.9402497,-37.1533203125,-28.4033203125,108.8232421875
16.9701021,-38.1298828125,-28.8916015625,110.4833984375
17.0010977,-38.0810546875,-29.6728515625,112.3876953125
17.0322364,-37.8369140625,-31.0888671875,111.8505859375
17.0643117,-37.7392578125,-32.6513671875,109.1650390625
17.0920307,-37.1533203125,-34.5068359375,103.6474609375
17.1220026,-37.3486328125,-35.6787109375,98.1298828125
17.1481499,-38.1787109375,-37.9736328125,92.0263671875
17.1836885,-39.2529296875,-38.9501953125,86.7041015625
17.2116283,-40.8154296875,-40.8056640625,82.0654296875
17.2396709,-41.5478515625,-42.2705078125,78.1591796875
17.2743579,-42.3291015625,-44.2724609375,74.6923828125
17.3035327,-43.3544921875,-45.8349609375,71.6162109375
17.3343749,-44.2333984375,-47.2509765625,68.8330078125
17.3793221,-44.9169921875,-47.8369140625,65.8056640625
17.3999774,-45.1611328125,-42.6123046875,63.1689453125
17.4245197,-46.1376953125,-37.0458984375,69.5166015625
17.4533549,-46.4794921875,-32.9931640625,92.2705078125
17.481495,-47.6025390625,-30.4052734375,115.5615234375
17.5138357,-46.8212890625,-28.5009765625,131.1865234375
17.5434999,-43.5986328125,-26.7431640625,135.7763671875
17.5807127,-39.0087890625,-24.6435546875,134.6044921875
17.6035186,-36.6162109375,-24.9853515625,130.3076171875
17.6382193,-35.9814453125,-25.8154296875,126.1083984375
17.6618809,-35.3955078125,-26.1572265625,120.8349609375
17.6959694,-35.4443359375,-25.6201171875,116.8310546875
17.7229872,-34.3701171875,-25.5712890625,115.7080078125
17.7604761,-34.0283203125,-25.1806640625,116.9287109375
17.7865803,-35.0048828125,-26.0107421875,118.3447265625
17.8151265,-35.2978515625,-26.9873046875,118.8330078125
17.8460293,-34.4677734375,-28.9892578125,115.7568359375
17.874007,-34.7607421875,-30.7470703125,110.8251953125
17.9139129,-34.2236328125,-33.0908203125,105.1611328125
17.9369378,-35.2978515625,-34.4580078125,99.7412109375
17.9665133,-36.5673828125,-36.0205078125,93.9306640625
17.9995616,-37.9345703125,-38.1689453125,89.1455078125
18.0264529,-39.1064453125,-39.3408203125,85.2392578125
18.0559003,-40.1806640625,-41.1474609375,81.7724609375
18.087848,-40.4736328125,-42.9541015625,79.1845703125
18.1167949,-41.5478515625,-45.0048828125,76.8408203125
18.1462707,-42.8173828125,-47.1044921875,73.9599609375
18.1792818,-43.1591796875,-48.2763671875,69.8095703125
18.2076417,-43.5498046875,-48.9599609375,66.6845703125
18.2406262,-43.4033203125,-44.5654296875,62.4853515625
18.269201,-44.1845703125,-38.8037109375,66.9775390625
18.297267,-45.1123046875,-34.1162109375,89.0478515625
18.348329,-46.2841796875,-30.9423828125,114.5849609375
18.3592247,-47.4072265625,-28.3544921875,133.7255859375
18.3934879,-44.0869140625,-26.5478515625,140.7568359375
18.4201897,-38.6669921875,-24.7900390625,140.7568359375
18.4492569,-35.3466796875,-24.2041015625,136.9482421875
18.4763175,-33.9794921875,-25.0341796875,133.3349609375
18.5150283,-33.5400390625,-25.7177734375,128.5498046875
18.5392692,-33.0517578125,-24.8388671875,123.6669921875
18.567215,-32.4658203125,-24.6435546875,120.7373046875
18.5992405,-32.1240234375,-24.8388671875,120.6884765625
18.6374108,-32.4658203125,-24.8876953125,122.9345703125
18.6573898,-33.1982421875,-26.8408203125,123.9599609375
18.6895636,-32.9541015625,-28.7451171875,120.4443359375
18.7268176,-32.3193359375,-29.9658203125,116.6845703125
18.7518293,-32.8564453125,-31.8701171875,111.0693359375
18.7808732,-33.6376953125,-33.1396484375,104.7705078125
18.8091944,-34.1259765625,-35.2880859375,98.7646484375
18.83632,-36.0791015625,-36.8994140625,93.9306640625
18.8749611,-37.2509765625,-38.8037109375,88.9990234375
18.898284,-38.3740234375,-40.2685546875,85.1904296875
18.9324531,-38.5205078125,-42.2705078125,82.6025390625
18.961361,-39.3505859375,-42.8076171875,80.1611328125
18.9894058,-40.7177734375,-44.7607421875,77.3291015625
19.0204681,-41.9873046875,-46.7138671875,74.7412109375
19.0514459,-42.1826171875,-48.6181640625,70.6396484375
19.0770524,-42.6220703125,-48.4716796875,66.4404296875
19.1150924,-42.9638671875,-44.7607421875,62.7783203125
19.137983,-44.1357421875,-38.0712890625,68.3935546875
19.1768301,-44.8681640625,-33.6279296875,91.9775390625
19.1994165,-46.2841796875,-30.8935546875,118.4423828125
19.2393063,-46.6748046875,-29.1845703125,136.2158203125
19.262939,-43.7451171875,-26.9384765625,142.4658203125
19.2998083,-37.4462890625,-25.2783203125,140.4638671875
19.318829,-35.1025390625,-24.7900390625,136.1181640625
19.3539191,-33.6376953125,-24.9365234375,133.3349609375
19.3805577,-32.7099609375,-24.9853515625,126.6455078125
19.4253341,-33.0029296875,-25.3271484375,121.8603515625
19.4412613,-32.6123046875,-24.8388671875,119.3701171875
19.4733206,-31.9775390625,-25.1806640625,120.2001953125
19.5024063,-33.6865234375,-25.3759765625,122.5927734375
19.5513844,-34.8095703125,-26.3525390625,122.3486328125
19.5619972,-33.6865234375,-28.2080078125,120.5419921875
19.599451,-34.2724609375,-30.2587890625,115.2685546875
19.6234451,-34.3212890625,-31.6259765625,109.4091796875
19.6534677,-34.9072265625,-33.1884765625,102.7197265625
19.6843934,-35.9326171875,-35.1904296875,97.4951171875
19.7216701,-36.9580078125,-36.6064453125,91.5869140625
19.7447322,-38.3740234375,-38.9990234375,87.6318359375
19.7829941,-38.9599609375,-40.3662109375,84.5068359375
19.8050186,-40.2783203125,-42.1728515625,81.3818359375
19.8330516,-41.4990234375,-44.7119140625,78.8916015625
19.8697449,-42.5732421875,-45.9814453125,76.7431640625
19.8952778,-43.3544921875,-48.3740234375,72.9833984375
19.9282602,-43.7451171875,-48.1298828125,69.4189453125
19.9784764,-44.0380859375,-44.1748046875,64.9755859375
19.983721,-45.5029296875,-38.5595703125,73.0810546875
20.0141324,-46.0400390625,-35.5810546875,97.1044921875
20.0523913,-47.0166015625,-33.4814453125,122.0068359375
20.0753803,-47.3095703125,-31.6259765625,138.0712890625
20.1094291,-44.3310546875,-30.2099609375,142.7587890625
20.1374074,-39.8388671875,-28.8916015625,140.8056640625
20.1653721,-37.1044921875,-29.3310546875,135.5810546875
20.2073522,-35.9814453125,-30.5517578125,129.8193359375
20.2254292,-36.0302734375,-30.6005859375,122.6904296875
20.2559328,-36.8115234375,-30.2587890625,117.1728515625
20.2858667,-37.0068359375,-29.9169921875,115.1708984375
20.3169216,-36.4697265625,-30.6005859375,116.8310546875
20.3502572,-37.1533203125,-31.6748046875,119.9560546875
20.3776808,-38.2275390625,-32.7978515625,120.4443359375
20.4057431,-37.8857421875,-34.2626953125,117.2216796875
20.4547117,-37.7880859375,-36.1181640625,112.9736328125
20.4756955,-38.0810546875,-37.8271484375,105.6494140625
20.4977723,-37.9833984375,-39.7314453125,99.7900390625
20.5299462,-39.2529296875,-41.8798828125,93.8330078125
20.5569118,-41.5478515625,-43.8330078125,88.4619140625
20.5941599,-42.2802734375,-45.6396484375,83.6767578125
20.6211889,-42.9638671875,-47.4462890625,80.2587890625
20.6481158,-43.4033203125,-49.3505859375,76.8408203125
20.6762226,-45.1123046875,-51.3525390625,74.3994140625
20.7147715,-45.8447265625,-53.1103515625,72.1044921875
20.73845,-46.9189453125,-54.8681640625,69.4189453125
20.7704128,-47.9931640625,-56.6259765625,65.5126953125
20.799026,-47.5048828125,-55.7958984375,61.7529296875
20.8286009,-47.4072265625,-48.9599609375,59.9951171875
20.8663082,-48.4326171875,-44.4189453125,74.7412109375
20.8908713,-50.1416015625,-40.9033203125,103.1591796875
20.9191874,-50.7763671875,-39.0478515625,127.7197265625
20.9509524,-51.3134765625,-37.1435546875,142.0751953125
20.9911111,-48.4814453125,-36.5576171875,144.9072265625
21.0112301,-42.5244140625,-35.2880859375,141.4892578125
21.0412654,-39.5458984375,-35.5322265625,135.8251953125
21.071269,-39.5458984375,-36.4111328125,130.7470703125
21.0982729,-40.0830078125,-36.1669921875,123.1298828125
21.13591,-39.8388671875,-35.7275390625,118.4423828125
21.1583761,-39.3505859375,-35.7275390625,118.1982421875
21.1968993,-40.0830078125,-36.2158203125,121.2744140625
21.2199907,-40.4248046875,-37.0947265625,123.1298828125
21.2573332,-41.2060546875,-38.7548828125,122.3974609375
21.2835231,-40.4248046875,-39.1943359375,119.7607421875
21.3105294,-40.6201171875,-41.4892578125,114.1455078125
21.3414571,-40.4248046875,-43.1494140625,107.3095703125
21.3724509,-40.8154296875,-45.3466796875,100.3759765625
21.4025529,-42.0361328125,-47.7392578125,94.3212890625
21.4314838,-43.6962890625,-49.6923828125,88.6083984375
21.4624868,-44.4287109375,-50.9130859375,83.6279296875
21.4934845,-44.9658203125,-52.2802734375,80.7470703125
21.5254813,-45.8447265625,-54.7216796875,77.9150390625
21.5535192,-47.5048828125,-55.6494140625,74.8388671875
21.582595,-48.0908203125,-57.6025390625,72.1533203125
21.6114721,-48.4326171875,-59.5556640625,69.3701171875
21.6424962,-49.3603515625,-60.3857421875,64.2919921875
21.671466,-49.2138671875,-56.0400390625,59.8486328125
21.7045532,-49.8974609375,-49.8388671875,63.2666015625
21.7347439,-50.7275390625,-46.0791015625,85.7275390625
21.7627395,-51.6552734375,-43.2958984375,111.8505859375
21.7957154,-52.6318359375,-41.1474609375,130.5517578125
21.8247188,-51.8505859375,-39.5361328125,138.1201171875
21.8517148,-48.1884765625,-38.0712890625,136.9482421875
21.8870728,-43.1103515625,-37.5341796875,132.7490234375
21.9140518,-40.3759765625,-38.3642578125,127.1826171875
21.9461159,-40.6201171875,-38.4619140625,120.7861328125
21.9761592,-40.1806640625,-38.0712890625,114.3896484375
22.0030484,-39.6435546875,-37.0458984375,111.0205078125
22.0381146,-39.4970703125,-37.1923828125,110.9716796875
22.065048,-40.0341796875,-37.2900390625,113.6572265625
22.093752,-41.4501953125,-38.3154296875,114.4384765625
22.1276864,-41.3037109375,-39.9267578125,112.1435546875
22.1545876,-40.8154296875,-41.0986328125,107.7978515625
22.1886431,-40.3759765625,-42.7099609375,101.8896484375
22.2168484,-40.6201171875,-43.7841796875,96.1767578125
22.2451991,-41.5478515625,-46.2255859375,89.0966796875
22.275242,-42.1826171875,-47.6904296875,83.2373046875
22.3082,-43.1591796875,-48.9599609375,78.5009765625
22.336146,-44.7216796875,-50.0341796875,74.1064453125
22.3701896,-45.1123046875,-52.2314453125,70.8837890625
22.3954493,-45.6005859375,-54.5751953125,67.0263671875
22.4263446,-46.7724609375,-55.8447265625,64.5849609375
22.4594543,-48.0419921875,-57.9931640625,61.8017578125
22.4894651,-48.1396484375,-58.2373046875,57.4560546875
22.5153398,-48.6279296875,-52.6220703125,54.6240234375
22.5483687,-49.4580078125,-47.3974609375,60.8251953125
22.5783998,-49.2626953125,-44.2236328125,83.6767578125
22.6053712,-50.5322265625,-41.9287109375,104.7216796875
22.6376918,-51.4111328125,-40.4150390625,118.8330078125
22.667737,-50.5810546875,-38.6083984375,122.0556640625
22.7006787,-47.0654296875,-36.8017578125,119.8095703125
22.7296728,-42.1826171875,-37.0458984375,115.3662109375
22.7597568,-40.2783203125,-37.6318359375,109.9951171875
22.7856381,-39.6923828125,-38.6083984375,103.3056640625
22.8176882,-40.2294921875,-37.8271484375,98.6181640625
22.8466445,-39.9853515625,-37.3388671875,97.0556640625
22.8784538,-39.9853515625,-37.0458984375,98.8134765625
22.9100087,-40.2294921875,-38.6572265625,100.4248046875
22.9371607,-41.3037109375,-40.0732421875,102.8662109375
22.9692409,-40.7666015625,-41.4404296875,100.5712890625
23.0002941,-40.4248046875,-42.9541015625,95.8349609375
23.0282545,-40.6201171875,-44.3701171875,91.0009765625
23.0732634,-40.5224609375,-46.7626953125,85.0927734375
23.0902535,-40.8154296875,-48.7158203125,79.6728515625
23.1370129,-41.7919921875,-50.5712890625,74.4482421875
23.1510392,-43.2568359375,-51.8408203125,71.0791015625
23.1905204,-44.2333984375,-53.6474609375,66.4892578125
23.2107072,-44.7216796875,-56.2353515625,63.6083984375
23.2418019,-45.6494140625,-58.2373046875,59.8974609375
23.2788534,-47.0166015625,-57.3583984375,56.8701171875
23.3003229,-47.7001953125,-53.1591796875,54.7705078125
23.3364996,-48.1884765625,-47.9833984375,63.8525390625
23.3572933,-48.4814453125,-44.6142578125,84.5556640625
23.3946956,-49.2626953125,-43.5400390625,105.3076171875
23.4321809,-49.5068359375,-41.6845703125,116.9775390625
23.4492116,-49.3115234375,-40.2197265625,119.5166015625
23.4886651,-45.0146484375,-39.5361328125,116.5380859375
23.5132037,-40.7666015625,-40.5126953125,111.3134765625
23.5509536,-38.7158203125,-41.0009765625,106.1865234375
23.5725034,-39.0087890625,-41.2451171875,98.9111328125
23.6111209,-39.0087890625,-40.7568359375,94.2236328125
23.6345544,-38.8623046875,-40.5615234375,93.2470703125
23.6722181,-39.2529296875,-41.0986328125,95.9326171875
23.7026413,-39.4482421875,-41.6845703125,97.8369140625
23.7252894,-40.6201171875,-42.8076171875,98.4228515625
23.7616584,-40.4248046875,-44.5166015625,95.8837890625
23.7833778,-39.6923828125,-45.7373046875,90.9521484375
23.8139161,-39.9853515625,-48.1298828125,85.7763671875
23.8506328,-39.8388671875,-49.3017578125,79.2822265625
23.87327,-40.9130859375,-51.3525390625,74.3505859375
23.912054,-41.7919921875,-53.0615234375,69.3212890625
23.9326988,-42.4267578125,-55.1123046875,64.1943359375
23.9684102,-43.0615234375,-57.4072265625,60.7763671875
23.9930572,-44.7705078125,-59.0673828125,57.2119140625
24.0332823,-45.3076171875,-61.1669921875,53.9404296875
24.0554161,-46.1865234375,-61.5576171875,49.8876953125
24.0939815,-47.5048828125,-56.7724609375,46.8603515625
24.1135708,-48.2373046875,-50.8642578125,50.3271484375
24.1492228,-48.4326171875,-47.0556640625,71.6162109375
24.1769196,-49.2138671875,-44.6142578125,94.7607421875
24.2039732,-49.6044921875,-42.3681640625,112.1923828125
24.2392679,-50.9228515625,-41.4404296875,119.9560546875
24.2641261,-47.7001953125,-39.2431640625,119.0283203125
24.298277,-42.2802734375,-39.6826171875,115.7568359375
24.324055,-39.3017578125,-39.8779296875,111.3623046875
24.3627739,-37.7880859375,-41.3427734375,105.1611328125
24.3852017,-37.8857421875,-39.9755859375,99.2529296875
24.4212162,-38.0322265625,-39.5849609375,97.3486328125
24.444067,-37.5927734375,-39.4873046875,97.0556640625
24.4781579,-38.2275390625,-40.4150390625,99.6923828125
24.5150509,-38.7646484375,-41.1962890625,101.2060546875
24.5360908,-39.9365234375,-43.1982421875,100.1806640625
24.5666538,-39.1064453125,-44.1748046875,96.6650390625
24.6151891,-39.5947265625,-46.0791015625,91.4404296875
24.6348741,-39.3017578125,-47.9345703125,84.7509765625
24.6586839,-39.5458984375,-49.8388671875,78.5498046875
24.695354,-40.5224609375,-51.6455078125,72.9345703125
24.7180479,-42.1337890625,-53.3056640625,67.6611328125
24.7599785,-42.9150390625,-55.4052734375,63.6572265625
24.7780455,-43.6474609375,-57.3583984375,59.7021484375
24.8170061,-45.2099609375,-59.3603515625,55.8447265625
24.8375722,-46.1376953125,-60.3857421875,52.0361328125
24.8753005,-46.6748046875,-57.7978515625,48.6181640625
24.9012295,-47.6025390625,-51.0107421875,46.8115234375
24.9439428,-48.2861328125,-45.9326171875,60.4833984375
24.9598668,-48.6279296875,-42.4169921875,83.8232421875
25.0089869,-49.4580078125,-40.4150390625,105.9423828125
25.0391083,-50.0439453125,-38.1689453125,117.9052734375
25.0466171,-49.2138671875,-36.7041015625,121.0302734375
25.0849053,-45.2099609375,-35.2880859375,117.6123046875
25.1097673,-39.9853515625,-36.7529296875,112.8271484375
25.1427843,-38.6669921875,-36.7041015625,107.4560546875
25.180607,-37.1533203125,-36.4111328125,100.9130859375
25.1996116,-37.4462890625,-35.9228515625,96.3232421875
25.2395441,-37.3974609375,-35.4833984375,94.7607421875
25.2598194,-36.9091796875,-36.0693359375,97.2998046875
25.3035537,-37.6904296875,-36.6064453125,98.0322265625
25.3244252,-38.1787109375,-38.2666015625,97.7392578125
25.3597627,-38.4228515625,-39.7802734375,95.8349609375
25.3800479,-38.1298828125,-40.6103515625,90.5126953125
25.4181559,-37.8857421875,-42.9052734375,83.8232421875
25.440637,-38.3740234375,-44.7119140625,77.6708984375
25.478908,-38.8134765625,-46.1279296875,70.7861328125
25.5018497,-39.8388671875,-49.1552734375,66.0009765625
25.5381725,-40.6201171875,-49.9365234375,60.5322265625
25.5601928,-41.9873046875,-52.3779296875,56.8701171875
25.6012798,-42.8662109375,-53.8427734375,53.1103515625
25.622381,-43.5986328125,-56.1376953125,49.1064453125
25.6649387,-45.3076171875,-56.6748046875,46.0302734375
25.6958081,-45.9912109375,-53.2080078125,42.1728515625
25.7097845,-46.8212890625,-46.7138671875,43.0029296875
25.7577978,-47.3095703125,-42.7587890625,60.6298828125
25.7790012,-47.3095703125,-40.3173828125,84.5068359375
25.8020747,-48.0908203125,-39.1455078125,102.9150390625
25.8396811,-49.2626953125,-37.8271484375,111.9482421875
25.860342,-48.3349609375,-36.6064453125,110.4345703125
25.9000856,-44.0869140625,-36.1669921875,106.6259765625
25.9217762,-39.4482421875,-37.6806640625,101.6455078125
25.9634025,-37.3486328125,-37.7294921875,94.7607421875
25.9840275,-37.1533203125,-37.4853515625,87.7783203125
26.0211274,-37.1533203125,-36.9482421875,84.1650390625
26.0429838,-37.9345703125,-36.6064453125,84.8486328125
26.0828474,-38.2275390625,-37.6318359375,88.1201171875
26.1044877,-37.6904296875,-38.7060546875,89.4873046875
26.1446083,-38.5205078125,-40.2197265625,89.3896484375
26.1651587,-38.8623046875,-41.6357421875,85.7763671875
26.2056777,-38.2275390625,-43.1982421875,80.9423828125
26.2236676,-38.4228515625,-45.3466796875,74.9365234375
26.2612208,-38.4716796875,-47.0068359375,68.9794921875
26.2840245,-38.7646484375,-49.7412109375,63.8037109375
26.325946,-39.9853515625,-51.1572265625,58.5791015625
26.3459066,-41.5966796875,-53.5498046875,54.1357421875
26.3879995,-42.3779296875,-56.0400390625,50.2783203125
26.4075616,-42.7197265625,-56.8212890625,47.2509765625
26.4445173,-44.0380859375,-55.6005859375,43.4423828125
26.4666864,-45.3564453125,-49.4482421875,42.6611328125
26.4985978,-45.6982421875,-45.3466796875,53.6474609375
26.5255499,-46.3818359375,-42.0751953125,77.1337890625
26.5605439,-47.4072265625,-40.8544921875,99.5947265625
26.5873097,-47.7978515625,-39.5361328125,112.0458984375
26.6163606,-48.0908203125,-38.7548828125,113.8525390625
26.6454913,-45.1611328125,-38.3642578125,110.1904296875
26.6831898,-41.2548828125,-39.3408203125,104.6728515625
26.7056041,-38.1298828125,-39.4873046875,97.7880859375
26.7448548,-37.1533203125,-38.9501953125,90.1220703125
26.7685672,-37.4462890625,-38.5595703125,85.2392578125
26.7974963,-38.1787109375,-38.4130859375,84.4580078125
26.8370394,-38.2763671875,-38.7548828125,86.6064453125
26.8576046,-38.4228515625,-39.4384765625,89.4873046875
26.887731,-38.9599609375,-41.4404296875,89.9755859375
26.9227825,-39.3017578125,-43.1494140625,87.1923828125
26.9473037,-39.2041015625,-44.9560546875,82.2119140625
26.9806883,-39.4970703125,-46.7626953125,75.8154296875
27.009836,-39.2529296875,-48.6669921875,70.5419921875
27.0392207,-39.8876953125,-51.0107421875,64.7802734375
27.0719156,-40.6689453125,-52.4267578125,59.2138671875
27.0998418,-41.3525390625,-54.7705078125,54.8193359375
27.1267414,-42.8173828125,-56.2841796875,50.8154296875
27.1644553,-43.5986328125,-58.5302734375,46.9580078125
27.1870654,-44.6728515625,-58.9697265625,43.9794921875
27.2203616,-46.2841796875,-53.8916015625,40.8544921875
27.2520901,-47.2119140625,-47.7392578125,42.9541015625
27.2820461,-47.7001953125,-43.2958984375,62.2900390625
27.3080755,-48.1884765625,-41.5380859375,89.8779296875
27.3402182,-49.5556640625,-39.1943359375,111.8505859375
27.3710933,-50.0439453125,-37.5830078125,121.8115234375
27.4012513,-49.1650390625,-35.6787109375,122.3974609375
27.4312619,-45.7958984375,-36.4111328125,117.8564453125
27.4603417,-41.1572265625,-37.2412109375,112.0458984375
27.4932874,-38.9111328125,-36.8505859375,105.0146484375
27.5202909,-38.2763671875,-36.6064453125,98.3251953125
27.5502302,-37.9833984375,-36.1181640625,94.7119140625
27.5785003,-38.5693359375,-35.5322265625,94.9072265625
27.6118939,-38.4228515625,-36.9970703125,97.2509765625
27.6399248,-38.5693359375,-37.1435546875,99.3505859375
27.6734219,-39.4482421875,-38.9013671875,98.1298828125
27.7004134,-40.2783203125,-39.6826171875,95.2490234375
27.731328,-39.3017578125,-41.7822265625,90.0732421875
27.7653336,-39.4482421875,-43.1005859375,83.2373046875
27.7890812,-39.3017578125,-45.6396484375,76.9873046875
27.8202457,-40.0341796875,-47.6416015625,71.1767578125
27.8544624,-40.7666015625,-48.8134765625,65.3173828125
27.8813686,-41.8896484375,-50.4736328125,60.2880859375
27.9143709,-43.5498046875,-53.8427734375,57.4560546875
27.9427718,-43.9404296875,-55.1123046875,52.8662109375
27.9727771,-45.2099609375,-55.6005859375,50.1318359375
28.0049776,-46.6259765625,-50.9130859375,47.3486328125
28.0328801,-47.3095703125,-44.5166015625,49.3017578125
28.0617603,-48.3349609375,-40.6591796875,69.0283203125
28.0958936,-48.2861328125,-38.0224609375,97.2509765625
28.1467084,-49.4580078125,-36.2646484375,120.3466796875
28.1567143,-49.7021484375,-34.6533203125,129.7216796875
28.1836694,-49.8486328125,-33.2861328125,131.0888671875
28.2142234,-46.0888671875,-32.1142578125,126.4990234375
28.2422874,-41.4013671875,-33.1884765625,121.2255859375
28.2742634,-39.1552734375,-33.5302734375,114.2431640625
28.3052106,-38.1298828125,-33.3349609375,107.8955078125
28.3369046,-38.8623046875,-32.5048828125,103.4033203125
28.3781351,-38.4716796875,-32.7001953125,103.1103515625
28.3932552,-38.6181640625,-33.4326171875,105.2587890625
28.4262425,-38.5693359375,-34.7021484375,106.1865234375
28.4561954,-39.1552734375,-35.1416015625,105.1611328125
28.4842206,-39.6923828125,-36.9482421875,102.4267578125
28.517265,-39.3505859375,-38.4619140625,96.0791015625
28.5602004,-39.3994140625,-40.4150390625,89.3408203125
28.5774199,-39.3505859375,-41.5380859375,82.5537109375
28.6065316,-40.4248046875,-44.0283203125,76.4990234375
28.6497759,-41.3037109375,-45.3466796875,71.4208984375
28.6657774,-42.4755859375,-47.5439453125,66.7822265625
28.6978528,-43.7451171875,-48.2275390625,63.0712890625
28.7514683,-44.3310546875,-51.1572265625,59.5556640625
28.7573938,-44.7705078125,-52.2314453125,56.1376953125
28.8013318,-46.0400390625,-51.5478515625,53.3544921875
28.8315923,-46.7724609375,-45.6884765625,50.4736328125
28.8491095,-47.5537109375,-39.4873046875,57.3095703125
28.8948538,-47.8466796875,-35.6787109375,81.9677734375
28.9252057,-48.2373046875,-33.6767578125,109.4580078125
28.9387428,-48.7744140625,-31.1865234375,128.4521484375
28.9895891,-49.3603515625,-30.1123046875,134.9462890625
29.0220546,-49.0185546875,-28.5498046875,134.8486328125
29.0285213,-45.4052734375,-28.3056640625,130.6494140625
29.0659436,-40.5712890625,-29.5263671875,124.0576171875
29.0891488,-37.8857421875,-29.8681640625,117.8076171875
29.1256139,-37.2509765625,-28.4521484375,112.2412109375
29.1467964,-37.0068359375,-28.5498046875,109.5068359375
29.1909994,-36.8115234375,-28.3544921875,110.1416015625
29.2094733,-37.1533203125,-28.7939453125,112.3388671875
29.2586774,-36.7626953125,-30.1123046875,112.8271484375
29.2891047,-38.2763671875,-31.3330078125,110.5810546875
29.2977934,-37.6416015625,-32.6513671875,106.3818359375
29.3354044,-37.5927734375,-33.8720703125,100.3759765625
29.3585851,-37.5927734375,-36.2158203125,93.6376953125
29.3972615,-37.5927734375,-37.0947265625,87.3876953125
29.4185024,-38.0322265625,-39.3408203125,81.9677734375
29.4613642,-39.2529296875,-41.0009765625,76.6943359375
29.4817052,-40.6689453125,-42.6123046875,72.7880859375
29.5229206,-41.7431640625,-44.5166015625,69.8583984375
29.5424918,-43.1103515625,-46.3720703125,67.0751953125
29.5776764,-43.9404296875,-46.6650390625,63.9501953125
29.599709,-44.1845703125,-43.6376953125,60.3857421875
29.6380032,-45.2099609375,-36.9482421875,60.0439453125
29.6592605,-46.2353515625,-32.0654296875,75.8154296875
29.6973334,-46.3330078125,-29.9169921875,102.2802734375
29.7202041,-46.7724609375,-28.0126953125,125.0830078125
29.7611189,-47.0166015625,-25.9619140625,137.0947265625
29.7804766,-47.4072265625,-24.4482421875,138.9990234375
29.8166268,-45.9423828125,-24.3505859375,135.6787109375
29.8377471,-41.5966796875,-24.9365234375,130.2099609375
29.8789984,-37.6416015625,-25.5712890625,123.9599609375
29.8994252,-36.3232421875,-24.4970703125,117.0263671875
29.937206,-35.8837890625,-24.5458984375,112.0947265625
29.961228,-36.6162109375,-24.5947265625,112.8759765625
30.000174,-36.5673828125,-25.4248046875,114.7314453125
30.0222917,-36.3720703125,-27.0361328125,116.1474609375
30.0631584,-36.4697265625,-28.5498046875,114.2431640625
30.0834039,-37.2021484375,-29.4775390625,110.7763671875
30.1214457,-37.3974609375,-31.8212890625,104.0869140625
30.1407839,-36.5673828125,-33.4814453125,99.1552734375
30.174812,-36.4208984375,-35.0439453125,92.4658203125
30.2028434,-36.8115234375,-36.7041015625,87.2412109375
30.2433157,-37.3486328125,-38.6572265625,81.6748046875
30.2647058,-38.5693359375,-40.2685546875,78.0126953125
30.3036779,-39.4970703125,-41.7822265625,73.8134765625
30.3234803,-40.3271484375,-43.8330078125,70.5419921875
30.3606866,-41.1083984375,-43.6865234375,67.2705078125
30.3825946,-41.9873046875,-38.7060546875,64.3896484375
30.4211576,-42.7197265625,-32.7978515625,65.9521484375
30.4460047,-43.5009765625,-29.7705078125,84.3603515625
30.4871174,-43.8916015625,-27.6220703125,108.0908203125
30.5011004,-44.5751953125,-26.2548828125,125.9619140625
30.539906,-44.7705078125,-24.6435546875,132.7978515625
30.5621571,-45.3076171875,-24.1552734375,131.9189453125
30.6003978,-44.1357421875,-23.9599609375,127.7685546875
30.6340125,-39.4970703125,-25.5224609375,122.0068359375
30.6541578,-36.0302734375,-25.4248046875,115.7080078125
30.6954775,-35.3466796875,-25.5224609375,107.9931640625
30.7292683,-34.9560546875,-24.9365234375,104.8193359375
30.7456113,-35.4443359375,-25.7177734375,106.5283203125
30.7825545,-34.1748046875,-26.0595703125,107.8466796875
30.8057365,-34.7119140625,-28.3056640625,107.7978515625
30.8440257,-34.9072265625,-29.4775390625,105.7958984375
30.8695362,-35.5419921875,-31.1865234375,100.5712890625
30.9168872,-35.3466796875,-32.5537109375,94.7119140625
30.9374383,-34.5654296875,-34.6044921875,88.3642578125
30.9589769,-35.0048828125,-36.3134765625,83.0419921875
31.0129641,-35.1513671875,-38.2666015625,76.7431640625
31.0331433,-36.1279296875,-39.9755859375,72.0068359375
31.0472301,-37.4462890625,-41.6357421875,68.1982421875
31.0870627,-38.5205078125,-43.4912109375,64.8291015625
31.1076142,-38.9599609375,-44.9072265625,60.9228515625
31.143924,-39.5947265625,-44.9560546875,56.6748046875
31.1671093,-40.3759765625,-40.2685546875,53.8427734375
31.2039721,-41.4501953125,-34.7998046875,55.6982421875
31.2305268,-42.4755859375,-30.5517578125,72.6904296875
31.2668588,-43.0615234375,-28.2568359375,93.6865234375
31.288045,-43.7451171875,-26.5966796875,109.7509765625
31.325212,-44.4775390625,-24.6435546875,115.5126953125
31.3509838,-44.7216796875,-23.6181640625,113.8525390625
31.3875982,-43.3056640625,-23.9599609375,110.3857421875
31.4083597,-38.6669921875,-25.2783203125,106.0888671875
31.4449961,-35.2978515625,-25.4248046875,100.5712890625
31.4702871,-33.0517578125,-25.2294921875,95.1513671875
31.5072573,-33.0029296875,-25.5712890625,92.8076171875
31.5291295,-32.0751953125,-25.3759765625,94.0771484375
31.5681041,-33.0517578125,-25.4248046875,94.9072265625
31.5880785,-32.0263671875,-27.2802734375,94.3701171875
31.6254423,-32.7587890625,-29.2333984375,91.6845703125
31.6495185,-33.2958984375,-30.5517578125,87.9736328125
31.6868099,-33.1005859375,-31.9189453125,82.2119140625
31.7122515,-32.9541015625,-33.7255859375,76.6943359375
31.7508634,-33.0517578125,-35.0439453125,70.6396484375
31.7679181,-32.2705078125,-36.5576171875,65.9521484375
31.8099875,-32.9541015625,-38.2666015625,61.4599609375
31.8306934,-34.7119140625,-40.0244140625,57.5048828125
31.8722427,-35.9326171875,-42.0751953125,53.5009765625
31.8918016,-37.0556640625,-43.6865234375,50.2294921875
31.9279104,-37.6416015625,-44.6630859375,46.3720703125
31.9477051,-38.6669921875,-42.5146484375,42.6123046875
31.9861365,-39.7412109375,-36.1181640625,40.8544921875
32.0091911,-40.3759765625,-30.8447265625,47.4951171875
32.0472609,-40.5712890625,-27.2314453125,66.6845703125
32.0712094,-42.0849609375,-26.2060546875,84.7998046875
32.111931,-42.2314453125,-24.2529296875,93.8818359375
32.1334854,-42.5732421875,-22.2021484375,95.9814453125
32.1703938,-43.1103515625,-20.7861328125,93.4912109375
32.1911513,-40.5224609375,-22.4951171875,89.2919921875
32.2297352,-35.7373046875,-22.2998046875,86.1181640625
32.2510148,-32.8564453125,-22.0068359375,80.6005859375
32.2873832,-31.4892578125,-21.1279296875,77.5244140625
32.3121494,-31.4404296875,-21.8603515625,77.2802734375
32.3505178,-31.1962890625,-22.8369140625,77.8173828125
32.3749051,-30.8056640625,-22.7880859375,79.3310546875
32.4195652,-30.8544921875,-24.9365234375,78.7939453125
32.4297615,-30.9521484375,-25.8154296875,75.7177734375
32.4701207,-31.1474609375,-27.8662109375,71.8115234375
32.4931345,-30.7568359375,-29.4287109375,66.5869140625
32.5311137,-31.0009765625,-31.1865234375,61.9482421875
32.5536338,-31.2939453125,-33.2373046875,56.7236328125
32.5930941,-31.3916015625,-34.4580078125,52.6220703125
32.6147041,-32.6611328125,-37.0947265625,48.2275390625
32.6513444,-34.3701171875,-38.5595703125,45.4443359375
32.6908617,-35.9814453125,-40.3662109375,42.3681640625
32.7068927,-36.1767578125,-40.7080078125,39.0478515625
32.7333581,-37.2021484375,-36.3623046875,36.6064453125
32.7703825,-37.8369140625,-31.0400390625,36.9482421875
32.7972712,-39.6435546875,-26.7431640625,51.2060546875
32.8258231,-40.3271484375,-25.2783203125,68.4912109375
32.8547687,-40.7666015625,-24.2529296875,80.5517578125
32.8924933,-41.0595703125,-22.8369140625,84.7021484375
32.9181173,-41.7919921875,-21.6650390625,83.5302734375
32.9510653,-41.2060546875,-21.6162109375,79.8681640625
32.9774365,-37.4462890625,-23.6181640625,76.9873046875
33.0045096,-33.3935546875,-23.0810546875,72.0556640625
33.0405217,-31.0498046875,-22.9345703125,67.7587890625
33.0656073,-30.2685546875,-22.8369140625,66.0986328125
33.093579,-30.9033203125,-23.1787109375,67.6123046875
33.1276573,-30.0244140625,-23.9111328125,69.2724609375
33.1576202,-29.7314453125,-25.9130859375,70.1025390625
33.1856631,-30.5615234375,-27.4755859375,68.1982421875
33.2172613,-30.9521484375,-28.7939453125,64.8779296875
33.2538627,-31.1962890625,-30.1123046875,60.1416015625
33.2778488,-31.2451171875,-32.1142578125,55.5517578125
33.3081694,-30.4150390625,-34.5068359375,51.8896484375
33.3371644,-30.9521484375,-36.4111328125,47.7392578125
33.3696368,-31.3427734375,-37.5830078125,44.3212890625
33.3986522,-33.0029296875,-39.7802734375,40.5615234375
33.4271698,-34.4189453125,-41.6845703125,37.0947265625
33.454147,-35.8349609375,-39.2919921875,34.9951171875
33.491873,-35.9814453125,-34.2138671875,33.2373046875
33.5161666,-36.7626953125,-28.7451171875,40.6591796875
33.554976,-38.3251953125,-26.2060546875,59.2138671875
33.6082562,-38.8623046875,-25.0341796875,74.7900390625
33.6092167,-39.4970703125,-23.9599609375,83.0419921875
33.6382624,-40.3271484375,-22.4951171875,83.1884765625
33.6682445,-40.5712890625,-22.3486328125,80.9423828125
33.698768,-38.8623046875,-22.5439453125,78.3056640625
33.7499497,-34.0283203125,-23.7646484375,74.0576171875
33.7586116,-30.3662109375,-24.0087890625,69.0283203125
33.7915319,-29.6337890625,-22.9345703125,66.3916015625
33.8185202,-28.7060546875,-22.6416015625,67.0751953125
33.8685713,-29.2919921875,-24.1064453125,69.2724609375
33.8800714,-29.1455078125,-24.8876953125,70.3466796875
33.927898,-29.2431640625,-26.6943359375,69.7119140625
33.9389219,-30.9033203125,-27.9638671875,66.9287109375
33.9857439,-31.4892578125,-29.8681640625,62.6318359375
34.0065689,-30.4638671875,-31.0888671875,57.9443359375
34.032895,-30.6103515625,-32.9931640625,54.4775390625
34.0813604,-30.3173828125,-35.0439453125,50.2294921875
34.0887949,-31.0009765625,-37.2412109375,46.3720703125
34.1439895,-31.5380859375,-38.7548828125,43.2958984375
34.173609,-32.7587890625,-40.8056640625,39.8291015625
34.180742,-33.9794921875,-40.6103515625,37.7294921875
34.2264967,-34.7607421875,-36.6064453125,34.6533203125
34.2479903,-35.6396484375,-29.8193359375,35.8740234375
34.2866069,-36.1767578125,-26.3525390625,50.0341796875
34.3078386,-38.3740234375,-23.7158203125,68.9306640625
34.3622594,-38.3740234375,-22.2509765625,82.1630859375
34.3635285,-38.8623046875,-20.4443359375,88.0712890625
34.3953106,-39.4482421875,-19.4677734375,87.1435546875
34.437342,-39.4482421875,-18.8818359375,84.6533203125
34.458552,-36.4208984375,-20.4931640625,81.8212890625
34.5041454,-31.1474609375,-20.8349609375,78.6474609375
34.533177,-28.8525390625,-20.5419921875,74.3017578125
34.541137,-27.9736328125,-20.2490234375,72.7880859375
34.5889866,-28.2666015625,-20.5419921875,73.2763671875
34.6082784,-28.4619140625,-21.0302734375,74.4970703125
34.6494288,-28.1689453125,-23.0322265625,74.7412109375
34.6689434,-28.7548828125,-24.8388671875,72.9345703125
34.6956682,-29.6337890625,-27.0361328125,69.2724609375
34.7382567,-29.2431640625,-28.2080078125,65.5126953125
34.7598166,-29.1455078125,-30.0634765625,60.6298828125
34.800981,-29.2431640625,-31.6259765625,56.5283203125
34.82053,-29.7314453125,-33.5302734375,52.5244140625
34.8578155,-29.6337890625,-35.5810546875,48.4228515625
34.8779051,-30.9521484375,-37.2900390625,46.1767578125
34.9151123,-32.5634765625,-39.5361328125,42.3681640625
34.9363914,-33.9794921875,-40.5126953125,38.4619140625
34.9718532,-34.9072265625,-36.7529296875,36.5087890625
34.9941327,-36.2255859375,-30.4541015625,34.9951171875
35.0383794,-36.5185546875,-25.2294921875,45.9326171875
35.0593386,-37.5927734375,-22.2998046875,64.2919921875
35.0967227,-38.4716796875,-20.8837890625,79.0380859375
35.1191913,-38.9599609375,-18.1982421875,84.7998046875
35.1551857,-39.2041015625,-17.2216796875,85.2880859375
35.1754819,-39.5947265625,-16.6357421875,83.2373046875
35.2186745,-38.2763671875,-17.4658203125,80.8447265625
35.2396318,-33.0517578125,-17.8564453125,77.6708984375
35.2791108,-29.7314453125,-18.1982421875,73.5693359375
35.2990715,-28.9501953125,-17.1728515625,71.4697265625
35.335376,-29.0478515625,-17.4169921875,70.5419921875
35.35616,-28.5107421875,-18.1494140625,72.0068359375
35.3924381,-28.6572265625,-19.0771484375,72.6904296875
35.4172801,-28.7060546875,-20.1513671875,71.2255859375
35.4543531,-28.8037109375,-21.9091796875,67.8076171875
35.4778356,-29.7802734375,-22.8857421875,63.7548828125
35.5164705,-29.0966796875,-24.6923828125,59.6044921875
35.5391272,-29.1943359375,-26.6943359375,54.8193359375
35.5788345,-29.5361328125,-27.5244140625,50.5224609375
35.5994591,-29.7802734375,-29.5263671875,46.3232421875
35.6341909,-30.3173828125,-31.4306640625,42.9541015625
35.6609247,-31.2939453125,-32.8466796875,39.8291015625
35.6968001,-32.4658203125,-34.6044921875,36.7041015625
35.7214923,-33.7353515625,-35.8251953125,33.7255859375
35.7606935,-34.5166015625,-31.8701171875,30.8935546875
35.7812275,-34.4189453125,-26.1572265625,29.4775390625
35.8174245,-36.1279296875,-20.5419921875,37.9248046875
35.8400735,-36.5185546875,-17.4658203125,54.2333984375
35.8810614,-37.1533203125,-15.7080078125,67.7099609375
35.9017941,-37.1533203125,-13.2177734375,73.6669921875
35.9407435,-37.8857421875,-11.0693359375,74.3017578125
35.9646093,-38.7158203125,-10.8740234375,71.3720703125
35.9996266,-37.9345703125,-11.2646484375,69.4189453125
36.02179,-33.5888671875,-11.7041015625,67.1240234375
36.0617633,-29.8291015625,-11.5087890625,62.6806640625
36.0820447,-28.2177734375,-10.7763671875,60.9716796875
36.1206464,-28.7060546875,-10.4833984375,60.4345703125
36.1413266,-27.8271484375,-11.1181640625,61.5087890625
36.1822621,-27.6806640625,-12.1435546875,62.2412109375
36.2004014,-28.3154296875,-13.8037109375,60.5810546875
36.2397588,-28.6572265625,-15.4150390625,57.9443359375
36.2608171,-29.2919921875,-17.1728515625,53.4033203125
36.3014334,-28.9990234375,-18.4423828125,49.6923828125
36.3250443,-28.8037109375,-19.6630859375,45.3955078125
36.3616398,-29.3896484375,-21.6162109375,42.3193359375
36.3806474,-29.0966796875,-23.6669921875,37.4365234375
36.4183759,-30.0732421875,-25.3759765625,33.9208984375
36.4421378,-30.8056640625,-27.1826171875,30.9423828125
36.4789108,-31.9287109375,-27.8662109375,27.9638671875
36.5044562,-33.2958984375,-24.3017578125,24.8388671875
36.5446527,-34.1259765625,-18.2958984375,23.0810546875
36.5660483,-34.3701171875,-13.9501953125,31.9189453125
36.6015036,-35.5419921875,-11.2158203125,46.0791015625
36.6223862,-36.7138671875,-9.9462890625,57.7001953125
36.6598434,-37.1533203125,-8.5302734375,61.8505859375
36.6856445,-37.7392578125,-7.2119140625,61.8017578125
36.7253117,-38.3740234375,-7.7001953125,60.4833984375
36.7467498,-37.3486328125,-9.0185546875,58.2373046875
36.7815934,-33.7353515625,-9.8486328125,54.8681640625
36.8025019,-29.5849609375,-10.0439453125,50.2783203125
36.8412944,-28.9990234375,-9.2138671875,48.7158203125
36.8659186,-29.4873046875,-9.7509765625,48.8623046875
36.9048521,-29.5849609375,-10.9716796875,50.1318359375
36.9266839,-29.2431640625,-12.7294921875,50.3759765625
36.9638822,-29.5849609375,-14.1455078125,48.9111328125
36.9873339,-29.9755859375,-15.8544921875,45.5419921875
37.0250988,-30.3662109375,-17.2705078125,41.8798828125
37.0476527,-30.0732421875,-19.2724609375,38.5595703125
37.0904139,-30.2197265625,-20.8349609375,34.7509765625
37.1207573,-30.1220703125,-23.6669921875,31.2841796875
37.1367368,-30.3662109375,-24.8388671875,27.4755859375
37.1860187,-31.1474609375,-27.0849609375,24.2529296875
37.2149664,-31.8310546875,-28.7451171875,20.6396484375
37.2251113,-33.6376953125,-26.4013671875,17.7587890625
37.2636693,-34.0771484375,-21.0791015625,15.2197265625
37.2857921,-34.9072265625,-16.2451171875,20.0048828125
37.3239107,-35.6396484375,-13.3642578125,33.9697265625
37.3460606,-36.9580078125,-11.0205078125,47.3486328125
37.3873771,-37.9833984375,-9.9462890625,54.7705078125
37.4080398,-38.2275390625,-8.7744140625,55.9912109375
37.443924,-37.6416015625,-8.9697265625,54.2333984375
37.4666859,-37.5439453125,-10.2392578125,52.5732421875
37.5068835,-35.8837890625,-10.6298828125,50.2783203125
37.5268901,-31.2939453125,-10.7763671875,46.0302734375
37.5786184,-29.6337890625,-11.0205078125,43.3935546875
37.5977503,-29.1943359375,-10.9228515625,42.7587890625
37.6189758,-28.9501953125,-12.2412109375,44.6630859375
37.6595332,-28.7548828125,-13.7548828125,44.6142578125
37.6888149,-28.5107421875,-16.0009765625,43.6865234375
37.7118546,-29.2919921875,-17.3193359375,41.3427734375
37.750203,-29.9267578125,-19.2236328125,37.5830078125
37.771719,-30.1708984375,-20.3955078125,33.0908203125
37.810368,-30.3173828125,-23.0322265625,29.6728515625
37.8284566,-29.4384765625,-24.3017578125,25.6201171875
37.8639968,-29.9267578125,-26.7919921875,22.3486328125
37.8891752,-29.7802734375,-29.0869140625,19.2724609375
37.9273703,-31.4892578125,-30.9912109375,15.2197265625
37.9504036,-32.2216796875,-32.5048828125,13.4130859375
37.9872879,-33.9794921875,-32.3095703125,9.8974609375
38.0110334,-34.7119140625,-27.0849609375,6.5283203125
38.0493759,-35.3955078125,-21.3720703125,8.2861328125
38.0704164,-36.4208984375,-17.2216796875,20.9326171875
38.1055461,-37.0068359375,-15.3173828125,34.6044921875
38.1301803,-38.0322265625,-13.8037109375,44.1259765625
38.1705054,-39.1552734375,-11.8505859375,47.9345703125
38.1927536,-39.1552734375,-11.1669921875,46.8115234375
38.2215803,-40.0830078125,-11.7041015625,45.0048828125
38.2691905,-38.4228515625,-12.7294921875,44.0283203125
38.2817521,-34.1748046875,-13.5595703125,41.1474609375
38.3199282,-30.7080078125,-13.3642578125,38.2177734375
38.3431635,-30.2197265625,-13.5595703125,37.3388671875
38.3808329,-29.9755859375,-14.6337890625,37.9736328125
38.4017528,-29.6826171875,-15.8544921875,38.6083984375
38.4399258,-29.3408203125,-17.4658203125,37.5830078125
38.4629112,-29.4384765625,-19.4189453125,35.9228515625
38.4928622,-29.5361328125,-21.6650390625,32.2607421875
38.5254561,-29.9755859375,-22.9345703125,29.3798828125
38.5533785,-30.4150390625,-25.3759765625,24.5947265625
38.5844512,-30.0244140625,-27.0361328125,21.2255859375
38.614369,-30.2685546875,-29.4287109375,17.9052734375
38.6414404,-30.3173828125,-30.8447265625,13.7548828125
38.6778806,-31.0009765625,-32.7001953125,11.1669921875
38.705545,-32.8564453125,-34.1650390625,9.2138671875
38.7334782,-33.3447265625,-35.6298828125,5.4541015625
38.7654861,-34.5166015625,-36.2158203125,3.0615234375
38.7936232,-35.7861328125,-32.6025390625,0.0341796875
38.8265698,-36.1279296875,-26.2060546875,-1.3330078125
38.8752414,-36.9091796875,-21.0302734375,7.2607421875
38.8935806,-37.8857421875,-18.1494140625,22.6416015625
38.915734,-38.2763671875,-16.3916015625,33.7255859375
38.9459907,-39.2041015625,-14.5849609375,37.6318359375
38.9739653,-39.3505859375,-12.9736328125,38.3642578125
39.0088954,-40.5224609375,-13.1201171875,36.3134765625
39.0348065,-40.8642578125,-13.9501953125,34.9951171875
39.0650623,-37.1533203125,-14.2919921875,32.9931640625
39.1133752,-32.3681640625,-14.4384765625,29.1845703125
39.1249927,-30.5615234375,-14.4384765625,26.8896484375
39.1543503,-30.0244140625,-14.7802734375,27.4755859375
39.1881447,-30.1708984375,-15.4638671875,28.4521484375
39.2160044,-29.2431640625,-17.2216796875,29.1845703125
39.2658038,-29.2431640625,-18.8818359375,26.7919921875
39.2797651,-29.5361328125,-20.5419921875,24.3505859375
39.3057696,-29.4384765625,-22.2998046875,20.4443359375
39.3384688,-30.2685546875,-24.2041015625,16.9775390625
39.3674971,-29.8779296875,-26.3525390625,14.1943359375
39.3971143,-30.1220703125,-27.2802734375,10.3369140625
39.4300746,-30.0732421875,-29.0380859375,7.4072265625
39.474289,-30.5615234375,-30.6005859375,4.8193359375
39.4945225,-31.2451171875,-33.2861328125,1.6943359375
39.5480957,-32.5146484375,-34.5556640625,-0.5517578125
39.5490311,-34.0771484375,-36.0205078125,-3.2861328125
39.5781619,-34.5654296875,-34.8974609375,-5.8740234375
39.6106212,-35.1513671875,-30.3076171875,-9.3896484375
39.6571194,-36.4208984375,-24.3017578125,-7.0947265625
39.6900493,-37.3974609375,-21.0302734375,4.5751953125
39.6990866,-38.3251953125,-18.5888671875,17.5634765625
39.7450821,-38.7646484375,-17.5146484375,26.1572265625
39.7655372,-39.2041015625,-16.0498046875,28.5986328125
39.7895031,-40.0830078125,-14.8291015625,27.8662109375
39.8357225,-41.3525390625,-15.1220703125,25.6201171875
39.8563298,-41.0107421875,-16.1962890625,24.0087890625
39.8944822,-36.2255859375,-16.4404296875,20.3955078125
39.9152232,-31.4404296875,-15.7080078125,17.9541015625
39.9537176,-30.7080078125,-15.3173828125,16.7333984375
39.9741421,-30.9033203125,-16.3427734375,18.4423828125
40.0141428,-30.2197265625,-17.3681640625,19.2724609375
40.0357767,-29.9755859375,-19.2236328125,18.5400390625
40.0725832,-30.1708984375,-20.9326171875,17.8076171875
40.094054,-30.7568359375,-22.1533203125,14.6337890625
40.1346096,-30.9033203125,-24.0087890625,11.4111328125
40.153887,-30.9033203125,-26.5478515625,8.2861328125
40.1963318,-30.5615234375,-28.1103515625,5.3076171875
40.2162958,-30.8544921875,-30.3564453125,2.2802734375
40.2537328,-30.8544921875,-32.5537109375,-0.6005859375
40.2751818,-31.3427734375,-34.3603515625,-3.6279296875
40.3099506,-32.1240234375,-36.6064453125,-5.9228515625
40.3327101,-33.7841796875,-37.2900390625,-7.6806640625
40.3750866,-34.6142578125,-33.6767578125,-10.6591796875
40.3972744,-35.1025390625,-28.0615234375,-11.0009765625
40.4345079,-36.2255859375,-23.7158203125,-2.4072265625
40.4555475,-37.2509765625,-21.7626953125,11.7529296875
40.4930203,-38.1298828125,-20.7373046875,22.2998046875
40.5139416,-37.7880859375,-19.2724609375,26.4501953125
40.5516001,-39.0087890625,-18.6865234375,25.9130859375
40.5779165,-39.5947265625,-19.2724609375,23.7158203125
40.6141585,-39.8876953125,-20.2978515625,22.5927734375
40.6360555,-38.8623046875,-21.5185546875,19.9072265625
40.6779616,-33.4423828125,-20.8349609375,16.8798828125
40.7079084,-30.1708984375,-20.3466796875,15.1220703125
40.7250634,-30.5615234375,-21.4697265625,15.9521484375
40.771117,-30.4150390625,-22.6416015625,17.6123046875
40.7913048,-31.1962890625,-24.0576171875,18.0029296875
40.8280794,-30.1708984375,-25.4736328125,16.8310546875
40.8482013,-30.6591796875,-27.9638671875,15.0244140625
40.8853059,-31.9287109375,-29.5263671875,11.6064453125
40.9073896,-31.4404296875,-32.0166015625,8.5791015625
40.9461321,-31.0009765625,-33.2861328125,5.1123046875
40.9757929,-30.9033203125,-36.2646484375,2.3291015625
41.0122369,-30.8544921875,-37.0947265625,-1.1865234375
41.032391,-31.8798828125,-39.8779296875,-3.6767578125
41.0708309,-32.2705078125,-41.6357421875,-4.9462890625
41.0911885,-33.8330078125,-43.6376953125,-7.5830078125
41.1312696,-34.6142578125,-41.0498046875,-10.1220703125
41.1517221,-35.5908203125,-36.0205078125,-11.8310546875
41.1905921,-36.4697265625,-29.8193359375,-8.2666015625
41.2111984,-38.3740234375,-26.7431640625,5.6982421875
41.2474917,-38.9111328125,-26.1083984375,19.9560546875
41.2740407,-39.8876953125,-24.2529296875,29.4775390625
41.3172668,-39.8388671875,-23.2275390625,32.2119140625
41.3294232,-40.6201171875,-22.0556640625,32.1142578125
41.3676181,-41.3525390625,-23.8623046875,30.6005859375
41.3880292,-40.5224609375,-24.4970703125,29.2822265625
41.4273351,-37.8857421875,-25.0341796875,26.3525390625
41.4611262,-33.1982421875,-24.8876953125,23.9599609375
41.4820786,-30.9521484375,-25.1318359375,23.6669921875
41.519295,-31.0498046875,-26.4990234375,24.5947265625
41.5410137,-31.1962890625,-27.3779296875,26.3037109375
41.5896735,-30.6591796875,-29.2822265625,26.7431640625
41.610598,-30.6591796875,-30.7470703125,25.1806640625
41.6288389,-30.8544921875,-33.2373046875,22.2509765625
41.6601067,-31.9775390625,-35.0927734375,19.3212890625
41.6966962,-31.7822265625,-36.9482421875,15.2685546875
41.7222631,-31.5380859375,-38.7548828125,12.2900390625
41.7607733,-32.3193359375,-40.6591796875,8.9697265625
41.7828951,-32.4658203125,-42.8564453125,6.0400390625
41.8370002,-32.5634765625,-44.5166015625,3.5009765625
41.8577156,-33.9306640625,-46.8603515625,1.4013671875
41.8686101,-35.8349609375,-48.6669921875,-1.1376953125
41.9065305,-36.5673828125,-49.0576171875,-4.4091796875
41.9300668,-37.6416015625,-44.3701171875,-6.6552734375
41.9693131,-38.2763671875,-38.4130859375,-7.4853515625
41.9926835,-39.6435546875,-33.3349609375,3.7939453125
42.031009,-40.8154296875,-31.7724609375,20.6396484375
42.051488,-41.2548828125,-29.4287109375,34.9462890625
42.0901331,-41.6455078125,-27.8662109375,40.7568359375
42.1188391,-42.0849609375,-26.8896484375,41.7333984375
42.1670033,-42.9638671875,-27.5244140625,40.7080078125
42.1883138,-43.5498046875,-28.0126953125,38.8037109375
42.2071698,-42.3291015625,-28.8916015625,37.4853515625
42.2412975,-37.7392578125,-28.9892578125,34.0185546875
42.2619392,-33.2958984375,-28.8916015625,32.2607421875
42.3082055,-32.3681640625,-28.1103515625,32.9931640625
42.3282407,-32.2216796875,-29.5263671875,34.3603515625
42.3636042,-32.0751953125,-30.7470703125,36.1181640625
42.3839456,-31.7333984375,-32.5537109375,34.3115234375
42.4229765,-31.8310546875,-33.8720703125,32.2607421875
42.4431017,-32.2216796875,-35.1904296875,28.8427734375
42.47801,-33.3447265625,-36.8017578125,24.8876953125
42.5048651,-32.8564453125,-39.4873046875,20.9814453125
42.5463134,-32.6123046875,-40.4150390625,17.1728515625
42.5653646,-32.5634765625,-42.1728515625,13.8037109375
42.6053443,-32.7587890625,-44.3701171875,10.3369140625
42.6278026,-33.4912109375,-46.2744140625,6.9677734375
42.6711089,-35.4443359375,-48.0322265625,5.0634765625
42.6925487,-35.9814453125,-49.2041015625,1.7431640625
42.718839,-37.4951171875,-49.2041015625,-0.7958984375
42.7657226,-38.9599609375,-44.0771484375,-3.4326171875
42.7960124,-39.5947265625,-37.8759765625,-4.9462890625
42.8056266,-40.7666015625,-33.0908203125,5.2587890625
42.8592726,-41.6455078125,-30.8935546875,21.3232421875
42.8801755,-42.2802734375,-29.0380859375,33.8720703125
42.8990273,-42.3291015625,-26.8896484375,39.4873046875
42.9382838,-43.2080078125,-26.1083984375,38.8037109375
42.9592856,-43.2080078125,-25.5712890625,36.6552734375
42.9955466,-44.8681640625,-26.8408203125,34.7021484375
43.0146668,-43.4521484375,-26.8896484375,32.4560546875
43.0539968,-39.6435546875,-27.0361328125,28.1591796875
43.0762372,-34.9072265625,-26.3037109375,25.9619140625
43.1171315,-33.4912109375,-26.3525390625,25.4736328125
43.1409117,-33.8818359375,-27.3291015625,26.4013671875
43.1784493,-34.1259765625,-28.4521484375,27.5732421875
43.2014755,-33.6865234375,-29.6728515625,26.0595703125
43.2395258,-34.1259765625,-31.4794921875,23.7158203125
43.2576537,-33.8818359375,-33.1884765625,19.4189453125
43.2943761,-34.5166015625,-35.3369140625,15.6591796875
43.3187732,-35.2978515625,-36.4111328125,11.9482421875
43.3572075,-34.0771484375,-39.0478515625,9.0673828125
43.38135,-33.9306640625,-40.1708984375,4.7705078125
43.417769,-34.5166015625,-42.3681640625,2.0361328125
43.4399925,-34.8583984375,-43.9306640625,-1.2841796875
43.4764261,-36.4208984375,-46.0791015625,-3.5302734375
43.500932,-37.7880859375,-45.9814453125,-6.3623046875
43.5372044,-38.5693359375,-42.2216796875,-9.5849609375
43.5621645,-39.6435546875,-36.4599609375,-10.6591796875
43.5921694,-40.0830078125,-32.0166015625,-1.9677734375
43.6295727,-41.9873046875,-29.8193359375,12.6806640625
43.6513214,-42.0361328125,-27.8173828125,25.2783203125
43.6883691,-42.5244140625,-26.9873046875,30.6494140625
43.7148959,-43.5009765625,-26.5478515625,29.8681640625
43.7418051,-43.6474609375,-27.3779296875,27.2314453125
43.774935,-44.4287109375,-27.8662109375,25.0341796875
43.8019625,-44.2822265625,-28.5498046875,21.8603515625
43.8338716,-40.7666015625,-28.2080078125,17.0751953125
43.8669171,-36.4697265625,-27.8662109375,15.8056640625
43.8938558,-34.8583984375,-28.0615234375,15.2685546875
43.9233581,-34.8095703125,-29.7705078125,17.4169921875
43.9549276,-34.2236328125,-31.2841796875,17.5634765625
43.9820918,-34.6142578125,-32.9443359375,17.2705078125
44.016789,-34.4189453125,-34.0673828125,15.0244140625
44.0437456,-34.9072265625,-36.0693359375,11.3134765625
44.0737201,-35.5419921875,-37.5830078125,7.4072265625
44.102759,-36.0791015625,-40.0244140625,3.6962890625
44.1394983,-35.6884765625,-41.1962890625,0.4248046875
44.1649885,-35.6396484375,-43.8818359375,-3.1396484375
44.1969885,-35.2001953125,-45.5908203125,-6.5576171875
44.2245157,-36.3720703125,-47.6904296875,-8.8525390625
44.2563949,-37.3974609375,-49.5458984375,-11.1474609375
44.28546,-38.8134765625,-47.6416015625,-13.9306640625
44.3134716,-39.6923828125,-41.2451171875,-16.3720703125
44.3447646,-40.0341796875,-36.1669921875,-12.8564453125
44.3778486,-41.3525390625,-32.9443359375,1.5966796875
44.404834,-42.7685546875,-31.6259765625,16.4404296875
44.4332911,-43.5498046875,-29.9658203125,26.3525390625
44.4652984,-43.8427734375,-28.8916015625,29.1357421875
44.4962923,-44.7216796875,-28.0615234375,27.3291015625
44.5283487,-44.5263671875,-29.6728515625,25.2783203125
44.5573349,-45.3564453125,-30.6005859375,22.5927734375
44.5862242,-44.4287109375,-30.3564453125,18.5888671875
44.6182689,-39.7412109375,-30.2099609375,16.5869140625
44.6473156,-36.0302734375,-30.8447265625,15.1220703125
44.6913321,-34.6142578125,-32.0654296875,15.9033203125
44.7061139,-34.7119140625,-31.9189453125,18.2470703125
44.7371783,-35.3466796875,-34.3603515625,18.5400390625
44.7691342,-35.8837890625,-35.6298828125,17.2705078125
44.800078,-35.5419921875,-37.3876953125,14.8779296875
44.843028,-36.4697265625,-39.7802734375,10.7763671875
44.8554637,-36.4208984375,-41.5869140625,6.7724609375
44.8891361,-36.7626953125,-43.7353515625,3.3544921875
44.935662,-36.2744140625,-45.8837890625,-0.2587890625
44.9511551,-36.7626953125,-47.4462890625,-2.9443359375
44.9959399,-36.8603515625,-49.7900390625,-7.0458984375
45.0129736,-37.4462890625,-51.2060546875,-9.1455078125
45.0511146,-38.1298828125,-53.3544921875,-11.6357421875
45.0682249,-39.3994140625,-52.4755859375,-14.4189453125
45.1151864,-40.9619140625,-46.0302734375,-16.5185546875
45.1311645,-42.1337890625,-40.2197265625,-15.2490234375
45.1889058,-42.4755859375,-36.0205078125,-1.6748046875
45.2211036,-44.1845703125,-34.3115234375,16.6357421875
45.2222479,-44.9658203125,-33.0419921875,30.2587890625
45.2627914,-45.0634765625,-31.4794921875,34.8974609375
45.2816821,-46.1865234375,-30.8447265625,35.3857421875
45.3229465,-46.2841796875,-31.1865234375,33.5791015625
45.3400941,-46.8701171875,-31.8701171875,32.1142578125
45.3840166,-47.7490234375,-32.5537109375,29.3798828125
45.3999803,-43.3544921875,-31.7236328125,25.0830078125
45.4429724,-38.3740234375,-31.9677734375,23.6181640625
45.4645388,-36.0302734375,-31.6259765625,24.4970703125
45.4999371,-36.2255859375,-33.3349609375,27.4267578125
45.5242225,-36.2744140625,-34.1162109375,28.1103515625
45.5588756,-36.3720703125,-36.4599609375,27.3291015625
45.5821022,-35.7861328125,-38.1689453125,24.8388671875
45.6323836,-35.7861328125,-40.1708984375,20.9326171875
45.6623819,-36.6650390625,-41.6357421875,17.1728515625
45.6732748,-37.5439453125,-44.0283203125,13.0712890625
45.7263556,-36.9091796875,-45.5908203125,9.0185546875
45.7573951,-36.9091796875,-47.4951171875,5.0146484375
45.7622804,-36.6650390625,-48.9599609375,3.2080078125
45.8053119,-37.5439453125,-50.8642578125,0.5224609375
45.8241885,-38.3251953125,-52.5244140625,-2.1142578125
45.860924,-39.7412109375,-54.1845703125,-5.0439453125
45.8840177,-40.9130859375,-52.4267578125,-8.2666015625
45.9200559,-41.4990234375,-47.2509765625,-10.6103515625
45.9453182,-42.8662109375,-40.8056640625,-10.3173828125
45.98314,-43.7451171875,-36.6552734375,3.4033203125
46.0027326,-45.1123046875,-34.1162109375,22.4462890625
46.0395341,-45.5029296875,-32.6513671875,38.0224609375
46.0610525,-45.7958984375,-31.3330078125,44.0771484375
46.1024183,-46.0400390625,-29.1357421875,44.9560546875
46.1224684,-46.8701171875,-29.3798828125,41.8798828125
46.1597496,-47.5537109375,-30.7958984375,40.3662109375
46.1855183,-47.9443359375,-30.0146484375,37.2412109375
46.2210477,-45.2099609375,-29.9169921875,33.5302734375
46.2414057,-39.9365234375,-29.3310546875,31.2353515625
46.2766179,-36.4208984375,-29.7216796875,31.9189453125
46.3046766,-36.3232421875,-30.4052734375,33.6767578125
46.3441432,-36.4697265625,-31.9677734375,35.6298828125
46.3684632,-36.2255859375,-32.9443359375,34.9462890625
46.4056481,-36.8115234375,-34.6533203125,33.4814453125
46.4255117,-36.3232421875,-36.4111328125,28.7939453125
46.4610914,-37.0556640625,-38.3154296875,24.3505859375
46.4861233,-37.2021484375,-40.0732421875,20.2978515625
46.526754,-37.6904296875,-41.7333984375,16.1474609375
46.5470221,-37.9345703125,-43.8330078125,12.0947265625
46.5884551,-37.2509765625,-45.2978515625,8.1884765625
46.6085289,-38.1298828125,-47.4951171875,5.5517578125
46.6461768,-38.1787109375,-50.2783203125,2.9150390625
46.6690363,-40.2783203125,-50.7177734375,0.4736328125
46.7095188,-41.0595703125,-46.5185546875,-1.7724609375
46.7303157,-41.3525390625,-40.2685546875,-4.7021484375
46.7706836,-42.7197265625,-35.4345703125,3.4033203125
46.7908604,-43.1103515625,-33.1884765625,21.9091796875
46.8281607,-45.4541015625,-31.7236328125,39.2431640625
46.8482569,-45.1611328125,-30.3076171875,48.5693359375
46.8897342,-45.4541015625,-29.7216796875,51.3037109375
46.9090493,-46.4306640625,-28.7939453125,49.3994140625
46.9526323,-46.2353515625,-29.8193359375,46.2255859375
46.9716378,-47.4560546875,-30.8935546875,42.2216796875
47.0144514,-46.9189453125,-30.3564453125,38.2177734375
47.0458851,-43.2080078125,-30.0146484375,36.1181640625
47.0578173,-38.3251953125,-29.5263671875,34.3603515625
47.0939886,-36.8603515625,-30.7470703125,37.2412109375
47.1195303,-36.5185546875,-32.1630859375,40.0244140625
47.1552992,-36.9580078125,-33.6767578125,40.0244140625
47.182239,-37.2509765625,-35.3369140625,38.6572265625
47.2198942,-37.2998046875,-36.7041015625,34.4580078125
47.240678,-37.9833984375,-38.9501953125,30.7958984375
47.2806082,-38.8623046875,-41.5869140625,26.4501953125
47.3019811,-38.0322265625,-43.1005859375,21.9091796875
47.3413104,-37.8857421875,-44.9560546875,18.1005859375
47.3616286,-37.5927734375,-47.5927734375,15.0732421875
47.3982543,-38.2275390625,-49.3505859375,12.2900390625
47.424334,-39.0087890625,-51.4501953125,8.8232421875
47.4609697,-39.7412109375,-48.6669921875,6.7236328125
47.4820388,-41.3037109375,-43.0029296875,4.2822265625
47.5206034,-42.1826171875,-37.9736328125,8.2373046875
47.5406608,-42.3291015625,-34.4580078125,24.6435546875
47.5756947,-43.4521484375,-32.8955078125,43.8818359375
47.6032752,-44.0380859375,-31.5283203125,58.0419921875
47.6399652,-44.6728515625,-30.1611328125,63.4619140625
47.6615415,-45.6982421875,-30.5029296875,61.8994140625
47.7006575,-46.0888671875,-31.0888671875,58.7744140625
47.7209539,-46.9677734375,-32.1630859375,55.3564453125
47.7588128,-46.9677734375,-32.2119140625,50.2294921875
47.7822804,-44.0869140625,-31.3818359375,47.0556640625
47.8175993,-39.9853515625,-31.6748046875,44.8583984375
47.8439126,-37.2021484375,-31.6259765625,46.6650390625
47.8790501,-36.1279296875,-33.4814453125,50.0830078125
47.9014789,-36.4208984375,-34.8974609375,50.9130859375
47.9377135,-36.5673828125,-36.8994140625,49.8388671875
47.9626942,-37.0068359375,-38.3154296875,46.2255859375
48.0010217,-37.0556640625,-39.9755859375,42.6123046875
48.0321374,-38.1787109375,-41.2451171875,38.2666015625
48.0551941,-37.7392578125,-43.9794921875,34.0185546875
48.0964694,-37.8857421875,-45.7373046875,30.2099609375
48.116913,-37.9833984375,-47.8369140625,26.1083984375
48.1449265,-37.6904296875,-49.5947265625,22.0556640625
48.1832343,-37.9345703125,-51.7919921875,20.2001953125
48.2054513,-39.2041015625,-52.5732421875,16.1474609375
48.2454475,-40.0830078125,-46.6650390625,13.9990234375
48.2673611,-41.6943359375,-39.7314453125,12.6806640625
48.304156,-41.8896484375,-36.3623046875,24.6435546875
48.3282643,-43.0615234375,-33.6767578125,46.3232421875
48.3562342,-43.4521484375,-33.1884765625,66.4892578125
48.3935041,-45.0634765625,-31.0888671875,77.0361328125
48.4280503,-45.4541015625,-30.2099609375,80.0634765625
48.4466617,-45.9912109375,-30.2587890625,77.8173828125
48.4912653,-46.0888671875,-31.7724609375,75.0341796875
48.5086579,-46.8701171875,-31.7724609375,70.9814453125
48.5366997,-46.1865234375,-31.9189453125,66.0498046875
48.5747425,-41.7431640625,-31.2841796875,62.9736328125
48.59845,-38.0322265625,-31.4794921875,62.3876953125
48.6352772,-35.6396484375,-31.9677734375,64.9755859375
48.6599878,-35.8837890625,-33.2861328125,67.0751953125
48.6890561,-35.8349609375,-34.8486328125,66.9775390625
48.7170533,-35.8349609375,-36.7529296875,64.4873046875
48.754252,-35.8837890625,-38.6083984375,60.2392578125
48.7775083,-35.8349609375,-39.6826171875,55.6494140625
48.8065614,-36.8603515625,-42.8076171875,50.6689453125
48.8404568,-36.1279296875,-43.4912109375,46.3720703125
48.8694704,-36.6650390625,-45.2001953125,41.6357421875
48.9025555,-36.2744140625,-46.8115234375,37.7294921875
48.929419,-37.0556640625,-48.6669921875,34.8486328125
48.9673046,-36.4697265625,-50.8154296875,31.4306640625
48.9900414,-38.3740234375,-50.4736328125,28.5498046875
49.0211167,-38.9111328125,-45.7861328125,24.8876953125
49.0496003,-39.8388671875,-39.0478515625,23.5205078125
49.0910662,-40.8642578125,-34.7509765625,34.0185546875
49.1090212,-41.8408203125,-32.4560546875,56.8701171875
49.1466772,-42.8662109375,-31.1376953125,77.8173828125
49.1726464,-43.7939453125,-29.1357421875,90.9033203125
49.2008527,-44.1845703125,-27.5244140625,94.7607421875
49.2321258,-43.7451171875,-27.8662109375,92.0751953125
49.2641799,-45.0146484375,-29.2333984375,88.6083984375
49.2914654,-45.1611328125,-28.8916015625,84.7021484375
49.3245356,-45.2587890625,-28.6474609375,78.5986328125
49.3525156,-42.2802734375,-28.4521484375,75.0830078125
49.3855113,-37.3486328125,-28.5009765625,73.9111328125
49.4139444,-34.6142578125,-29.5751953125,75.3759765625
49.4428846,-35.1513671875,-30.4052734375,77.2314453125
49.4749128,-35.0048828125,-31.6259765625,77.1826171875
49.5049606,-34.0771484375,-33.3837890625,74.4482421875
49.5318472,-34.1259765625,-34.8974609375,69.8095703125
49.5650958,-34.4677734375,-37.3388671875,65.1708984375
49.5941714,-35.1025390625,-38.5107421875,59.4091796875
49.6221371,-35.9326171875,-40.6591796875,55.2587890625
49.6550768,-35.1513671875,-42.8076171875,50.0830078125
49.6860767,-35.2490234375,-43.7353515625,46.0302734375
49.713033,-34.9072265625,-45.8837890625,41.9775390625
49.7462916,-35.0048828125,-47.4462890625,39.1455078125
49.7742068,-36.3232421875,-48.5693359375,35.9716796875
49.8080744,-37.2998046875,-43.6865234375,32.5537109375
49.834265,-38.6181640625,-37.9248046875,29.5263671875
49.8642921,-39.6435546875,-33.5791015625,37.1923828125
49.8962175,-40.2294921875,-31.2841796875,57.9931640625
49.9262762,-40.8154296875,-29.4287109375,77.9150390625
49.9543789,-41.2548828125,-27.9638671875,88.8037109375
49.9883136,-42.4755859375,-26.8896484375,91.3916015625
50.0163038,-42.6708984375,-27.7197265625,88.6083984375
50.049854,-43.3544921875,-28.4521484375,83.6767578125
50.0778417,-43.5498046875,-28.8427734375,78.8916015625
50.1061919,-44.1357421875,-28.7451171875,72.6416015625
50.1386915,-41.7919921875,-28.7939453125,68.1982421875
50.1655659,-37.0068359375,-29.0380859375,67.4169921875
50.1977558,-33.7353515625,-29.5263671875,69.2236328125
50.2286274,-33.4423828125,-30.9423828125,71.2744140625
50.258587,-33.8330078125,-32.9443359375,70.8349609375
50.2905876,-33.3935546875,-33.9208984375,68.0517578125
50.3211112,-33.5888671875,-35.9716796875,63.7548828125
50.3457994,-33.7353515625,-37.8759765625,58.7255859375
50.3759577,-34.6630859375,-40.1708984375,52.8662109375
50.4100019,-34.6142578125,-41.9775390625,48.2275390625
50.4566346,-33.9794921875,-44.2724609375,43.5888671875
50.4764627,-34.2724609375,-46.3232421875,40.2197265625
50.5010945,-33.3447265625,-48.9111328125,35.8251953125
50.5378276,-34.1748046875,-50.3759765625,32.3583984375
50.5596567,-34.6142578125,-49.9365234375,29.0869140625
50.5996402,-36.0791015625,-44.4189453125,26.4013671875
50.6175646,-37.4462890625,-38.5595703125,25.4736328125
50.6587945,-37.9833984375,-35.4833984375,38.7548828125
50.6786037,-39.1064453125,-33.5302734375,59.8974609375
50.7216807,-39.5458984375,-32.2119140625,75.9130859375
50.7427621,-40.5224609375,-31.0400390625,82.8955078125
50.7786104,-41.6455078125,-30.4052734375,82.7490234375
50.8029731,-41.9873046875,-31.0400390625,79.4775390625
50.8420884,-42.2314453125,-31.8701171875,75.1318359375
50.8599805,-43.1591796875,-31.8212890625,68.9794921875
50.9007371,-43.4033203125,-32.3583984375,63.5107421875
50.9212748,-39.7900390625,-32.1630859375,60.6787109375
50.9583764,-35.7373046875,-32.7490234375,61.1181640625
50.9810422,-33.5888671875,-33.7744140625,63.8037109375
51.0157977,-32.4658203125,-35.0439453125,64.4873046875
51.0445104,-32.9541015625,-36.4111328125,63.7060546875
51.0808855,-32.6611328125,-37.8271484375,60.4833984375
51.0997521,-32.9052734375,-40.5615234375,55.5517578125
51.1410767,-33.6865234375,-41.7822265625,49.4482421875
51.1627569,-34.0771484375,-43.9306640625,45.7861328125
51.2006263,-34.3212890625,-46.0791015625,40.7080078125
51.2246812,-33.9306640625,-48.1787109375,36.2646484375
51.2618433,-33.3447265625,-50.3271484375,32.1630859375
51.2847748,-33.9306640625,-52.5732421875,28.6474609375
51.3212876,-33.2958984375,-54.3310546875,25.8642578125
51.3416451,-35.0537109375,-54.1845703125,22.7392578125
51.3898727,-36.2744140625,-49.6923828125,19.4677734375
51.4033035,-37.7392578125,-43.0029296875,17.0263671875
51.4405252,-38.4228515625,-38.1689453125,27.7685546875
51.4651904,-39.1552734375,-36.2646484375,51.0107421875
51.5041762,-40.2783203125,-34.0673828125,69.9560546875
51.5263341,-41.5966796875,-32.9931640625,80.5029296875
51.5652806,-42.3779296875,-31.3818359375,83.2373046875
51.5846714,-43.0126953125,-31.6748046875,80.7958984375
51.6218702,-43.1591796875,-32.6513671875,76.6455078125
51.6457528,-43.6474609375,-33.7255859375,73.0322265625
51.6829587,-44.7705078125,-33.0908203125,68.6376953125
51.7057746,-43.2080078125,-33.6279296875,63.9013671875
51.7403231,-37.6904296875,-33.4326171875,63.2177734375
51.7635909,-33.6865234375,-34.2138671875,65.1220703125
51.8037905,-32.9052734375,-35.4833984375,67.8076171875
51.8253374,-33.0517578125,-38.0224609375,67.2705078125
51.8662525,-33.0517578125,-39.3896484375,65.1708984375
51.8872657,-33.7353515625,-41.2451171875,60.7275390625
51.9262972,-33.0517578125,-43.1982421875,56.4794921875
51.9483979,-33.3447265625,-45.3955078125,51.1083984375
51.9844762,-34.8095703125,-46.9091796875,46.3720703125
52.0046419,-33.9794921875,-49.3994140625,42.2705078125
52.0407182,-33.8818359375,-50.9619140625,38.4130859375
52.067791,-33.6865234375,-53.0126953125,34.6533203125
52.0946873,-34.0771484375,-54.9169921875,31.4306640625
52.1329745,-34.7119140625,-57.1630859375,28.8916015625
52.1566419,-35.5419921875,-57.3583984375,25.8642578125
52.1969284,-36.8115234375,-51.9873046875,22.2021484375
52.2189544,-38.1298828125,-45.1513671875,20.4443359375
52.2564601,-38.9111328125,-41.5869140625,29.3798828125
52.2814117,-39.8876953125,-37.7294921875,52.7685546875
52.3181598,-41.1572265625,-35.9228515625,73.6669921875
52.3381903,-41.4990234375,-34.7021484375,86.4111328125
52.3756395,-42.2314453125,-32.4072265625,90.1708984375
52.4001129,-42.6220703125,-31.8701171875,88.6083984375
52.4382416,-42.7685546875,-33.4814453125,85.8251953125
52.4595582,-43.5498046875,-34.2138671875,81.8701171875
52.498704,-44.3310546875,-33.7255859375,77.0361328125
52.5228303,-44.1357421875,-32.8466796875,73.2275390625
52.5582549,-38.9111328125,-32.9443359375,71.7138671875
52.5784365,-34.1259765625,-33.3837890625,73.9599609375
52.6148899,-32.9052734375,-34.7509765625,76.2060546875
52.6405616,-32.3681640625,-35.8740234375,75.9619140625
52.6790265,-32.7099609375,-36.8505859375,74.3017578125
52.702228,-32.2216796875,-38.9013671875,70.9326171875
52.7415269,-32.2705078125,-40.3662109375,65.7080078125
52.7604788,-32.8076171875,-42.8564453125,60.4345703125
52.800386,-33.3935546875,-43.6376953125,55.6982421875
52.8209989,-33.5888671875,-45.6884765625,50.2294921875
52.8559847,-33.9794921875,-47.5927734375,46.6162109375
52.8828512,-33.0029296875,-49.3994140625,43.1494140625
52.9180974,-32.9052734375,-51.4013671875,39.7802734375
52.9438046,-33.1494140625,-53.4521484375,37.1923828125
52.9810703,-35.0048828125,-54.7705078125,33.6279296875
53.0012619,-36.0302734375,-51.2548828125,30.8935546875
53.0334184,-36.8603515625,-45.0537109375,27.6220703125
53.0625472,-37.8369140625,-39.5849609375,32.4072265625
53.1012374,-38.6669921875,-36.0205078125,52.0849609375
53.1241869,-40.0830078125,-34.9462890625,73.3740234375
53.1652654,-39.9853515625,-33.0908203125,88.2666015625
53.1851302,-41.5478515625,-31.4306640625,92.8076171875
53.2151812,-41.8896484375,-31.4306640625,92.3681640625
53.254187,-41.4501953125,-32.2607421875,88.1201171875
53.2751783,-42.6708984375,-32.9443359375,84.0673828125
53.3042614,-43.4033203125,-32.4560546875,78.6474609375
53.3437447,-43.8916015625,-31.8701171875,73.5205078125
53.3664652,-40.1318359375,-31.5771484375,72.2998046875
53.4027577,-34.7607421875,-31.9189453125,73.6669921875
53.4255741,-32.2705078125,-33.7255859375,76.1572265625
53.4617927,-32.1240234375,-34.7021484375,77.1826171875
53.4826407,-32.2705078125,-36.2646484375,75.4248046875
53.5209963,-32.1240234375,-38.5107421875,71.4208984375
53.5454179,-32.0263671875,-39.6337890625,67.2216796875
53.5798136,-32.4169921875,-41.8798828125,61.8017578125
53.6054445,-33.1005859375,-43.6865234375,56.7724609375
53.6443467,-33.2470703125,-45.4931640625,52.5732421875
53.6653173,-32.9541015625,-47.4462890625,48.0322265625
53.7021174,-33.0029296875,-49.5458984375,44.5166015625
53.7275713,-32.6123046875,-51.5478515625,41.0498046875
53.7556359,-32.6611328125,-52.6220703125,38.1689453125
53.7939158,-33.9306640625,-50.9130859375,35.2880859375
53.8149435,-35.3466796875,-44.6630859375,32.4072265625
53.8532755,-35.9814453125,-39.4873046875,36.2646484375
53.8796972,-36.6162109375,-37.0947265625,54.0380859375
53.9063916,-36.9091796875,-35.2880859375,75.5224609375
53.939417,-38.3740234375,-34.6533203125,90.2197265625
53.9690375,-38.8623046875,-33.9697265625,95.4931640625
53.9983645,-40.1318359375,-32.7490234375,93.7841796875
54.029639,-40.2294921875,-34.5556640625,89.6337890625
54.0567117,-40.4248046875,-35.0927734375,85.0439453125
54.1029877,-41.6943359375,-35.8740234375,78.8427734375
54.1201857,-42.1826171875,-34.9462890625,73.3740234375
54.1536664,-39.5458984375,-35.1904296875,71.8603515625
54.1806918,-34.1748046875,-35.3857421875,73.7158203125
54.2088204,-31.1474609375,-36.7041015625,76.7919921875
54.2387237,-30.8056640625,-37.8759765625,78.0126953125
54.2697166,-30.7080078125,-39.7314453125,75.9130859375
54.2986902,-30.9033203125,-41.1474609375,72.6416015625
54.3306924,-30.8544921875,-43.3447265625,67.9052734375
54.3595826,-31.1474609375,-45.0537109375,62.2900390625
54.3905756,-31.8310546875,-46.7138671875,58.2861328125
54.4208627,-31.9287109375,-48.7646484375,53.4521484375
54.4508815,-31.8798828125,-50.9619140625,48.7646484375
54.4790698,-32.3193359375,-53.0615234375,44.4677734375
54.5120545,-31.7333984375,-54.8193359375,42.0751953125
54.5397567,-31.2939453125,-56.5771484375,39.1455078125
54.5711978,-33.1982421875,-55.7470703125,35.7275390625
54.6008008,-34.4677734375,-49.6435546875,33.0908203125
54.631781,-35.2001953125,-43.6865234375,33.3349609375
54.6647479,-36.3232421875,-39.9267578125,48.9111328125
54.6937419,-37.1044921875,-38.3154296875,72.7392578125
54.7197968,-37.8857421875,-36.8017578125,91.7333984375
54.7487617,-39.2529296875,-35.0439453125,101.3525390625
54.7837535,-39.4970703125,-33.9208984375,102.5732421875
54.8126659,-40.2783203125,-34.3115234375,99.8388671875
54.8433951,-40.4248046875,-35.4345703125,95.0048828125
54.8727208,-41.4990234375,-36.1181640625,90.4638671875
54.9006072,-42.2802734375,-34.7509765625,84.2138671875
54.9337423,-41.4990234375,-34.7998046875,81.1376953125
54.9636139,-37.1533203125,-34.7021484375,80.8935546875
54.9925279,-31.6845703125,-36.0205078125,84.4580078125
55.0235864,-30.2685546875,-37.4853515625,86.8994140625
55.0535476,-30.5126953125,-38.8525390625,86.4599609375
55.083943,-30.4638671875,-40.4150390625,83.5791015625
55.1149296,-30.3662109375,-42.6123046875,79.1845703125
55.1439738,-29.8779296875,-44.8583984375,73.9111328125
55.1769769,-30.6591796875,-46.6650390625,69.0771484375
55.2039084,-31.2939453125,-48.7646484375,63.0224609375
55.232987,-31.5869140625,-50.1318359375,58.7744140625
55.2665186,-31.1962890625,-51.8408203125,54.5263671875
55.2930141,-31.6845703125,-53.8427734375,51.7919921875
55.32606,-31.2939453125,-56.5283203125,49.0087890625
55.3550597,-32.3193359375,-58.1396484375,45.5419921875
55.3840119,-33.1494140625,-56.9677734375,42.9541015625
55.4160638,-34.3212890625,-50.9130859375,39.5361328125
55.4459877,-35.1025390625,-44.8095703125,39.2431640625
55.4733279,-36.3232421875,-40.6103515625,55.3076171875
55.5064175,-37.0068359375,-39.4384765625,81.6748046875
55.5344404,-37.7392578125,-37.0947265625,102.7197265625
55.5705623,-39.4482421875,-35.7763671875,113.5107421875
55.5984296,-39.7900390625,-34.9462890625,115.3662109375
55.6247495,-40.0341796875,-34.8974609375,112.6318359375
55.6600978,-41.1083984375,-36.3623046875,108.4814453125
55.6860546,-41.3037109375,-35.7275390625,104.7216796875
55.7149366,-42.7685546875,-35.4345703125,98.3740234375
55.7479016,-41.9873046875,-35.0927734375,95.2978515625
55.7758614,-37.8857421875,-35.4345703125,95.0537109375
55.8093743,-31.6357421875,-36.1669921875,97.9833984375
55.8458436,-29.9267578125,-37.5341796875,99.4482421875
55.867334,-30.2197265625,-39.7314453125,99.0087890625
55.8963956,-29.9267578125,-41.2451171875,95.7861328125
55.9294016,-30.3662109375,-42.4658203125,91.4892578125
55.9652156,-29.9755859375,-44.6142578125,86.5576171875
55.9911939,-30.2685546875,-46.9091796875,81.0888671875
56.0188447,-30.7080078125,-48.1787109375,75.4248046875
56.049725,-30.7080078125,-50.1806640625,70.1513671875
56.0819829,-30.4638671875,-51.9873046875,65.9033203125
56.1114322,-30.6591796875,-54.0380859375,62.3876953125
56.1473732,-30.5615234375,-55.6982421875,59.7021484375
56.1704888,-31.4404296875,-57.9443359375,56.2353515625
56.2004449,-32.5634765625,-57.7001953125,52.7197265625
56.2294315,-33.6376953125,-52.6708984375,49.1064453125
56.2693836,-34.3701171875,-46.5673828125,46.9580078125
56.2909194,-36.0302734375,-41.1962890625,54.8193359375
56.3230127,-37.2021484375,-38.9013671875,80.1611328125
56.3520187,-37.8369140625,-36.7041015625,104.5751953125
56.3804479,-39.1064453125,-35.3369140625,120.0048828125
56.413217,-39.5947265625,-32.9931640625,124.3505859375
56.4422099,-39.9853515625,-34.0185546875,123.4716796875
56.4703587,-40.3271484375,-34.6044921875,118.5400390625
56.5057519,-41.5478515625,-34.6533203125,113.7548828125
56.5311851,-41.8408203125,-34.6044921875,107.5048828125
56.5671034,-43.0126953125,-33.9208984375,102.2802734375
56.5914494,-40.8642578125,-33.8720703125,99.9365234375
56.62143,-34.9560546875,-34.5068359375,101.2548828125
56.6542079,-31.7333984375,-35.7275390625,104.6240234375
56.6823434,-31.3427734375,-37.6318359375,104.5263671875
56.7195188,-31.0009765625,-39.0478515625,102.0849609375
56.7426124,-30.9521484375,-41.3427734375,98.7158203125
56.7716369,-31.3427734375,-42.4658203125,92.3193359375
56.8035529,-31.7333984375,-44.4677734375,86.6552734375
56.8336436,-32.6123046875,-46.6162109375,80.7470703125
56.868309,-33.2470703125,-48.8623046875,76.0107421875
56.8887036,-33.1982421875,-50.3271484375,70.6396484375
56.9269322,-33.1494140625,-52.2802734375,66.2939453125
56.95367,-33.1982421875,-54.4775390625,62.7294921875
56.986644,-33.0517578125,-56.7724609375,59.6044921875
57.0126873,-33.9306640625,-55.8935546875,56.1376953125
57.0488578,-35.5908203125,-49.9365234375,52.0849609375
57.0778608,-36.7626953125,-44.2236328125,51.4990234375
57.1027757,-37.9345703125,-41.1474609375,65.7080078125
57.1318585,-38.6181640625,-38.6572265625,91.1962890625
57.184921,-39.7412109375,-37.6318359375,112.9736328125
57.1940186,-40.8154296875,-36.1181640625,123.7646484375
57.2321679,-41.5478515625,-36.0693359375,125.1806640625
57.2550864,-42.0361328125,-35.5322265625,120.5419921875
57.2904139,-42.4755859375,-37.0947265625,115.2685546875
57.3179935,-42.7197265625,-36.8505859375,108.1884765625
57.3449443,-43.0615234375,-36.2646484375,100.5712890625
57.3831473,-44.1357421875,-36.4111328125,95.8837890625
57.4073584,-42.0361328125,-36.8017578125,95.6396484375
57.4444959,-36.0791015625,-37.6318359375,98.4716796875
57.4685491,-33.9794921875,-39.6826171875,101.7919921875
57.4976152,-33.1494140625,-40.9033203125,101.3037109375
57.5256959,-33.9306640625,-42.6611328125,98.9111328125
57.557564,-33.6865234375,-44.2724609375,93.5400390625
57.5885879,-33.6376953125,-46.9091796875,87.8759765625
57.617588,-33.5400390625,-49.4482421875,81.6259765625
57.6558517,-35.5908203125,-51.0107421875,75.4736328125
57.6788487,-35.0537109375,-52.9150390625,70.5419921875
57.7099939,-34.8095703125,-54.9658203125,65.4150390625
57.737843,-34.7607421875,-57.8466796875,61.1669921875
57.7680622,-34.8583984375,-59.6044921875,57.8955078125
57.7991873,-35.1513671875,-58.9208984375,54.5751953125
57.8281199,-35.6396484375,-52.6220703125,51.4501953125
57.8581363,-36.9091796875,-47.1533203125,50.7666015625
57.8967857,-37.7880859375,-43.7841796875,65.0732421875
57.9214756,-38.3251953125,-42.0751953125,90.3173828125
57.9473775,-39.4482421875,-41.0009765625,111.0205078125
57.9859693,-40.2783203125,-39.4384765625,121.2255859375
58.0092339,-41.4013671875,-38.8525390625,121.5185546875
58.0410515,-41.9384765625,-39.5849609375,117.2705078125
58.070974,-41.9384765625,-40.0732421875,112.0458984375
58.1069578,-41.9873046875,-39.9267578125,105.1611328125
58.1280455,-43.1103515625,-39.4384765625,97.5439453125
58.1652256,-43.3544921875,-39.0478515625,92.4169921875
58.1892722,-41.8408203125,-39.1455078125,92.1728515625
58.2306162,-36.6162109375,-39.7802734375,94.6630859375
58.2505625,-33.0517578125,-41.8310546875,96.6162109375
58.2806152,-32.8076171875,-43.2470703125,96.4208984375
58.3115213,-32.8076171875,-44.5654296875,92.8076171875
58.3405276,-33.2470703125,-46.9091796875,87.7294921875
58.3694771,-32.9052734375,-48.9599609375,81.8701171875
58.4059168,-33.1494140625,-51.1083984375,75.0341796875
58.4297281,-33.8818359375,-52.9638671875,69.3701171875
58.4653492,-34.7119140625,-55.0634765625,63.6572265625
58.4903085,-34.4677734375,-56.5771484375,59.4580078125
58.5262697,-34.4189453125,-59.0185546875,54.9169921875
58.5563725,-34.6142578125,-60.6787109375,51.4501953125
58.5802756,-34.5166015625,-61.8017578125,48.2763671875
58.6175162,-35.1513671875,-55.9912109375,43.9794921875
58.6425484,-36.1279296875,-49.2041015625,40.8056640625
58.672947,-37.5927734375,-44.8583984375,50.2783203125
58.7006571,-38.3740234375,-43.1005859375,72.6416015625
58.7361396,-39.0087890625,-40.7568359375,94.4677734375
58.7613789,-40.0341796875,-39.2431640625,106.1865234375
58.7983344,-41.1083984375,-37.8271484375,109.1162109375
58.8249622,-41.5478515625,-37.0947265625,106.1865234375
58.8627568,-42.9150390625,-37.9736328125,101.4013671875
58.8871247,-42.8662109375,-38.6083984375,96.1767578125
58.915357,-43.2568359375,-38.3642578125,89.9267578125
58.9443775,-44.1845703125,-37.8759765625,85.1416015625
58.9814939,-43.6474609375,-38.2666015625,83.2373046875
59.0046839,-39.4970703125,-38.4130859375,84.7998046875
59.0361699,-34.7607421875,-40.3662109375,86.9482421875
59.065115,-32.5146484375,-41.3916015625,86.6064453125
59.0951477,-33.2470703125,-42.9541015625,84.9951171875
59.1341966,-32.5634765625,-44.8583984375,81.1376953125
59.157285,-32.7099609375,-46.7138671875,74.7900390625
59.1853793,-32.9541015625,-49.0576171875,70.2001953125
59.2162661,-33.3447265625,-50.8154296875,63.8525390625
59.2457254,-33.9794921875,-51.6943359375,58.1884765625
59.2778932,-33.8818359375,-54.2333984375,53.9892578125
59.3065061,-33.4912109375,-56.4794921875,49.4482421875
59.3366824,-33.4423828125,-58.7255859375,46.1279296875
59.3687437,-33.3447265625,-61.0693359375,42.2216796875
59.3976958,-34.1748046875,-61.8505859375,38.9501953125
59.4270091,-34.4677734375,-56.9189453125,36.3623046875
59.4600521,-36.2744140625,-50.7666015625,32.6025390625
59.4890985,-37.1044921875,-45.7861328125,36.3134765625
59.5189949,-37.4951171875,-41.9775390625,56.4306640625
59.5491029,-38.4716796875,-40.3662109375,77.7197265625
59.5763868,-39.7412109375,-38.5107421875,91.1962890625
59.6095357,-40.6201171875,-37.2412109375,94.8583984375
59.6723006,-41.1572265625,-36.9482421875,93.7353515625
59.6733688,-41.6943359375,-36.7041015625,89.6826171875
59.7039432,-41.5966796875,-38.1201171875,85.9228515625
59.7280064,-42.5244140625,-37.6318359375,80.3564453125
59.782369,-43.5986328125,-36.9482421875,75.4736328125
59.7907394,-43.3544921875,-36.3134765625,73.0810546875
59.8204605,-41.4013671875,-36.8017578125,73.4716796875
59.8487879,-35.9814453125,-37.7783203125,75.6689453125
59.8818511,-32.1240234375,-38.7548828125,76.4013671875
59.9097246,-31.7333984375,-40.6103515625,74.5458984375
59.9423822,-32.0751953125,-42.0751953125,70.9326171875
59.9737395,-31.9287109375,-43.1982421875,66.0986328125
59.9986194,-31.1962890625,-46.2255859375,60.9716796875
60.0325687,-31.3427734375,-47.8857421875,56.0400390625
60.067893,-32.1728515625,-49.2041015625,50.5712890625
60.1078774,-32.9052734375,-51.4990234375,46.0302734375
60.1281637,-32.7099609375,-53.1591796875,41.6357421875
60.1501152,-32.4169921875,-54.9169921875,38.6083984375
