Timestamp,PPG_Forehead,PPG_Earlobe,PPG_Finger
0.00320110000000007,0.185546875,0.185546875,0.185546875
0.00426210000000005,0.185546875,0.185546875,0.185546875
0.00518410000000014,0.185546875,0.185546875,0.185546875
0.00607289999999994,0.185546875,0.185546875,0.185546875
0.00694300000000014,0.185546875,0.185546875,0.185546875
0.00778290000000004,0.185546875,0.185546875,0.185546875
0.00826290000000007,91.6845703125,85.9716796875,83.3837890625
0.00864369999999992,-82.3388671875,18.8427734375,-73.0322265625
0.00901320000000005,-82.6806640625,29.1455078125,-62.9248046875
0.0093782,-80.9716796875,36.7138671875,-45.9326171875
0.0097491999999999,-79.4580078125,42.2802734375,-30.6982421875
0.0101073999999999,-77.2119140625,47.0654296875,-20.4443359375
0.0104791,-75.0146484375,50.0439453125,-14.6337890625
0.0108400999999998,-74.3310546875,52.2412109375,-10.3857421875
0.011199,-73.7451171875,50.4345703125,-11.6064453125
0.0115685999999999,-73.7451171875,49.8486328125,-13.7060546875
0.0119566,-73.2568359375,49.8974609375,-16.8310546875
0.0123148999999998,-73.5009765625,49.7021484375,-18.4912109375
0.0126743,-72.6708984375,48.8232421875,-19.1748046875
0.0130382,-72.9638671875,47.8466796875,-19.5654296875
0.0134028000000002,-73.6962890625,46.3330078125,-20.2490234375
0.0137632999999999,-72.9150390625,44.2822265625,-21.8115234375
0.0141334999999998,-73.4033203125,41.9384765625,-24.6923828125
0.0144936000000002,-74.1845703125,39.5458984375,-26.7919921875
0.0148513000000001,-74.0869140625,37.4462890625,-30.7470703125
0.0152177,-75.3076171875,35.4931640625,-34.0185546875
0.0155772999999999,-75.6982421875,33.7353515625,-37.5830078125
0.0159229999999999,-75.6982421875,31.4892578125,-40.7568359375
0.0162871,-76.4306640625,30.1708984375,-43.1494140625
0.0166360000000001,-76.5771484375,28.2666015625,-45.6884765625
0.0169834,-76.8701171875,25.7763671875,-47.4951171875
0.0173855000000001,-78.0908203125,23.7255859375,-50.3271484375
0.0177342999999999,-78.0419921875,20.7958984375,-54.6728515625
0.0180815000000001,-78.3837890625,18.8916015625,-57.7490234375
0.0184137,-78.7255859375,16.9873046875,-61.0693359375
0.0187955,-80.0439453125,17.3291015625,-63.2666015625
0.0191490000000001,-79.7998046875,26.0205078125,-62.9248046875
0.0194576,-79.4091796875,36.5185546875,-51.5478515625
0.0197829,-77.8955078125,44.0869140625,-32.4072265625
0.0200882,-75.6494140625,48.9208984375,-17.3193359375
0.0203945000000001,-74.2822265625,53.7060546875,-5.4052734375
0.0207207,-72.2314453125,57.4658203125,2.9443359375
0.0210332000000002,-70.7666015625,58.5888671875,8.2177734375
0.0213399000000001,-69.9365234375,58.3447265625,9.0966796875
0.0216466999999998,-69.6923828125,56.4892578125,6.7041015625
0.0219762999999999,-69.6923828125,56.1962890625,2.2607421875
0.0222844000000002,-69.7900390625,55.2685546875,0.4541015625
0.0225960999999999,-69.4970703125,53.9013671875,-0.0341796875
0.0229181000000001,-69.4970703125,52.6806640625,-1.5478515625
0.0232250999999999,-69.8876953125,50.8251953125,-2.8662109375
0.0235292999999999,-70.3759765625,49.3115234375,-4.3798828125
0.0238361999999999,-70.4248046875,46.7236328125,-7.2119140625
0.0241525999999999,-71.0107421875,43.7451171875,-11.0205078125
0.0244572000000001,-71.4501953125,42.4755859375,-14.6826171875
0.024769,-72.5732421875,39.5947265625,-18.2958984375
0.0250979,-72.7197265625,38.1787109375,-22.0556640625
0.0254047000000002,-73.2080078125,35.4443359375,-26.1572265625
0.0257111999999999,-72.8662109375,34.0771484375,-28.4521484375
0.0260685999999999,-74.4287109375,32.0263671875,-31.2353515625
0.0263824000000001,-73.5498046875,30.4638671875,-33.9208984375
0.0266899,-74.5751953125,27.6318359375,-37.1435546875
0.0270005000000002,-75.4541015625,25.1904296875,-41.0498046875
0.0273181999999998,-75.9912109375,24.4580078125,-44.9072265625
0.0276260000000002,-76.3330078125,22.4072265625,-48.5693359375
0.0279338999999998,-76.7236328125,23.6279296875,-51.8896484375
0.0282486,-76.5771484375,32.7587890625,-49.6923828125
0.0285544,-76.5283203125,42.6220703125,-37.3876953125
0.0288590000000002,-75.2587890625,49.6044921875,-19.2724609375
0.0291687,-73.8916015625,54.2919921875,-2.8662109375
0.0295087000000001,-71.7919921875,58.8330078125,8.4130859375
0.0298137999999999,-70.0341796875,61.6162109375,15.1513671875
0.0301216000000002,-68.8134765625,62.8857421875,19.0576171875
0.0305483999999998,-67.9345703125,60.8349609375,19.7412109375
0.0308589000000001,-67.6904296875,60.3955078125,15.3955078125
0.0311645999999999,-68.3251953125,59.0283203125,11.4404296875
0.0314885,-67.7880859375,57.9052734375,8.8037109375
0.0318006999999998,-67.5927734375,57.4658203125,6.9970703125
0.0321080999999999,-68.0810546875,55.7080078125,6.5576171875
0.0324260000000001,-68.4716796875,53.1689453125,4.2626953125
0.0327492999999999,-68.8623046875,50.2392578125,2.4560546875
0.0330556,-69.0576171875,47.6513671875,-2.0849609375
0.0333605000000001,-69.3017578125,45.4052734375,-5.8447265625
0.0336827,-70.2783203125,43.1591796875,-9.8974609375
0.0339908000000002,-71.0107421875,41.1572265625,-14.1455078125
0.0342977000000002,-71.2060546875,38.2275390625,-18.3935546875
0.0346221999999998,-71.9384765625,37.3486328125,-22.6904296875
0.0349347999999998,-72.8173828125,34.8583984375,-25.7177734375
0.0352427,-73.3544921875,33.4423828125,-28.4033203125
0.0356074999999998,-73.5009765625,30.7568359375,-31.9189453125
0.0359639,-74.3798828125,27.9248046875,-36.5087890625
0.0362705000000001,-75.8935546875,25.5810546875,-40.0732421875
0.0365777999999999,-76.2353515625,24.1650390625,-44.7119140625
0.0369074,-76.2841796875,22.4560546875,-49.1552734375
0.0372156000000001,-77.2607421875,24.1650390625,-51.2060546875
0.0375204999999998,-77.4072265625,33.1982421875,-49.3505859375
0.0378254,-77.4072265625,43.1591796875,-35.4345703125
0.0381398000000002,-76.1376953125,49.9462890625,-18.1494140625
0.0384478000000001,-74.4775390625,54.8291015625,-3.4521484375
0.0387550000000001,-72.5732421875,58.4423828125,5.4345703125
0.0390820000000001,-71.1083984375,61.3720703125,11.5380859375
0.0393859000000001,-69.6435546875,60.4443359375,15.1513671875
0.0396893,-69.2041015625,58.8330078125,13.0029296875
0.0400000999999999,-69.2041015625,58.4423828125,7.6318359375
0.0403150000000001,-69.0576171875,57.8076171875,3.9208984375
0.0822414999999999,-69.1064453125,56.4404296875,1.2353515625
0.1012286,-69.3994140625,55.4150390625,0.6005859375
0.1368362,-69.4970703125,53.5595703125,-1.4501953125
0.1582262,-68.9111328125,51.6552734375,-4.6728515625
0.1996591,-70.1806640625,49.2138671875,-6.4794921875
0.2142687,-71.2060546875,46.7724609375,-11.0693359375
0.2430017,-71.3525390625,45.4052734375,-15.3662109375
0.2753931,-71.8896484375,43.1103515625,-19.0771484375
0.3202288,-73.1591796875,41.1083984375,-23.4716796875
0.3400836,-73.3056640625,39.5458984375,-27.5244140625
0.3767216,-74.2822265625,37.6904296875,-30.4052734375
0.3965273,-74.4287109375,36.0791015625,-33.2373046875
0.4404039,-74.8193359375,34.1259765625,-36.4599609375
0.4612059,-75.3076171875,32.5634765625,-40.2685546875
0.5044871,-75.9423828125,30.1220703125,-44.5654296875
0.5259365,-76.6748046875,28.9501953125,-48.5693359375
0.5446258,-77.1630859375,27.0947265625,-53.0126953125
0.5736662,-77.7978515625,26.8017578125,-55.7470703125
0.6176466,-78.4814453125,34.5166015625,-56.7236328125
0.6375726,-77.5537109375,44.6728515625,-47.9833984375
0.6797144,-77.3583984375,52.6318359375,-29.3798828125
0.6998806,-75.6005859375,58.7353515625,-12.7294921875
0.7395162,-74.3798828125,62.6904296875,-0.2294921875
0.7596427,-72.3779296875,66.2060546875,6.3134765625
0.7962252,-70.9619140625,67.4755859375,11.0498046875
0.8165082,-69.8876953125,66.1083984375,11.2451171875
0.8593957,-69.6923828125,65.3759765625,6.3623046875
0.8817998,-69.5947265625,64.7900390625,1.9189453125
0.9228818,-68.9599609375,63.8134765625,-2.2802734375
0.9438485,-68.9111328125,64.1552734375,-3.5009765625
0.9831459,-68.6181640625,62.4951171875,-4.7216796875
1.0033049,-69.0576171875,60.6396484375,-7.4072265625
1.0529723,-69.3994140625,58.4912109375,-9.5556640625
1.0729314,-69.8876953125,56.0986328125,-13.5595703125
1.0897719,-70.9130859375,53.9990234375,-17.5634765625
1.1300282,-71.1083984375,51.8017578125,-20.9326171875
1.1500419,-72.2802734375,49.4580078125,-27.1826171875
1.1866497,-72.1826171875,47.8466796875,-30.4541015625
1.2060155,-72.6708984375,45.8935546875,-35.1904296875
1.2484963,-73.8916015625,44.4287109375,-38.0712890625
1.2698849,-73.7939453125,42.1826171875,-41.7333984375
1.3110854,-73.9892578125,40.2294921875,-45.3955078125
1.3313785,-75.1611328125,37.2509765625,-49.1552734375
1.3672161,-75.6494140625,35.1513671875,-54.0380859375
1.3890561,-76.1865234375,33.1005859375,-58.2373046875
1.4428226,-76.4306640625,31.6357421875,-62.4365234375
1.4624917,-77.3095703125,35.5419921875,-65.0244140625
1.4800732,-77.2119140625,46.0400390625,-61.4111328125
1.5121695,-76.6259765625,54.9755859375,-45.3955078125
1.5513734,-75.3076171875,61.4697265625,-26.2060546875
1.5714368,-74.5751953125,66.7431640625,-10.3369140625
1.607653,-72.9638671875,69.8681640625,-0.0341796875
1.6308558,-70.4736328125,72.5537109375,7.1435546875
1.6769918,-69.2041015625,72.2119140625,11.3427734375
1.7075342,-68.3740234375,70.2099609375,9.2431640625
1.7194564,-68.4228515625,68.8916015625,4.9462890625
1.7635777,-68.5693359375,67.6708984375,-0.2783203125
1.7840808,-68.3251953125,66.8408203125,-3.2080078125
1.821384,-68.6181640625,65.0830078125,-4.4287109375
1.8484321,-68.6669921875,62.6904296875,-6.7724609375
1.8850337,-69.0576171875,59.8583984375,-8.9697265625
1.9042383,-68.5205078125,57.3681640625,-12.8759765625
1.9422315,-69.5947265625,54.4873046875,-17.1728515625
1.9625461,-70.4248046875,52.0458984375,-21.2744140625
2.0040909,-70.6689453125,48.9208984375,-26.2548828125
2.0231163,-70.9619140625,46.4306640625,-31.1865234375
2.0631726,-72.0849609375,43.6962890625,-35.4833984375
2.0847273,-72.6708984375,41.2060546875,-39.6826171875
2.1271861,-73.1103515625,39.7412109375,-43.0517578125
2.1493826,-73.9404296875,37.3974609375,-46.7626953125
2.1981072,-74.7705078125,35.0048828125,-50.7177734375
2.2301343,-75.1611328125,31.4892578125,-55.2099609375
2.2312366,-75.6005859375,29.8779296875,-59.9462890625
2.2727372,-75.6982421875,28.0712890625,-64.4384765625
2.2921536,-76.6748046875,26.8017578125,-68.4423828125
2.3294726,-76.7724609375,34.0283203125,-70.4443359375
2.3569752,-77.2607421875,43.6474609375,-61.8994140625
2.394473,-76.4306640625,52.2412109375,-43.6865234375
2.4156667,-75.4541015625,58.0029296875,-26.1083984375
2.4544499,-73.3056640625,63.1787109375,-12.8759765625
2.4769535,-71.6455078125,66.2060546875,-4.1357421875
2.5172204,-70.5224609375,68.5498046875,2.1142578125
2.5375481,-68.7646484375,66.8896484375,4.7509765625
2.57306,-67.8369140625,65.2294921875,1.2841796875
2.5951533,-68.5205078125,64.9365234375,-3.9892578125
2.6376598,-68.2763671875,63.4228515625,-8.7255859375
2.656355,-67.7392578125,62.8369140625,-11.0693359375
2.7001251,-67.9833984375,61.2255859375,-13.0224609375
2.7201923,-67.7880859375,59.1748046875,-15.6591796875
2.7572367,-68.2763671875,56.5380859375,-18.1494140625
2.7787516,-68.9599609375,54.0966796875,-22.5927734375
2.8164159,-69.0576171875,51.9482421875,-27.4267578125
2.8367346,-69.8388671875,49.4580078125,-32.5048828125
2.8753406,-70.0341796875,46.7236328125,-37.7783203125
2.8944044,-70.5712890625,43.7939453125,-42.3681640625
2.9452764,-71.8896484375,41.9873046875,-46.6162109375
2.9656278,-72.3779296875,39.6923828125,-51.2060546875
2.9890721,-73.5009765625,37.5439453125,-55.2587890625
3.0308914,-73.5009765625,34.8095703125,-57.6513671875
3.0514025,-74.3310546875,32.6123046875,-62.1923828125
3.0880327,-74.6240234375,30.0732421875,-66.9775390625
3.108121,-75.5029296875,27.6318359375,-71.9091796875
3.150775,-76.0400390625,26.4111328125,-76.4501953125
3.1700062,-76.9189453125,26.5576171875,-79.7216796875
3.2119409,-77.3095703125,33.8818359375,-80.5517578125
3.2338793,-76.8212890625,44.0869140625,-70.6884765625
3.2735845,-76.8701171875,51.1181640625,-52.3779296875
3.2947941,-75.6982421875,57.7099609375,-35.0927734375
3.3223346,-73.9892578125,61.1279296875,-22.8369140625
3.3571881,-72.2314453125,65.1318359375,-15.5126953125
3.3789193,-70.0341796875,66.4013671875,-10.6787109375
3.4233254,-69.6435546875,64.7900390625,-9.9462890625
3.4413947,-68.1298828125,63.5205078125,-14.4384765625
3.4799329,-68.5205078125,62.1044921875,-19.4189453125
3.5033695,-68.5205078125,61.0791015625,-23.3251953125
3.5432584,-68.4716796875,60.0048828125,-25.7177734375
3.5624955,-68.9111328125,57.8076171875,-27.7197265625
3.6009332,-68.2763671875,56.0498046875,-30.5517578125
3.6224755,-69.3505859375,53.6083984375,-33.6279296875
3.6598211,-69.3994140625,50.2880859375,-37.7294921875
3.6824563,-70.2783203125,49.0185546875,-42.7099609375
3.7214908,-71.1083984375,46.2353515625,-48.2763671875
3.7417083,-72.2314453125,43.5009765625,-52.7685546875
3.7851326,-72.3779296875,41.3037109375,-57.1630859375
3.8018236,-73.3056640625,39.3017578125,-60.4833984375
3.8430898,-73.6962890625,37.0556640625,-64.7314453125
3.8736156,-74.9169921875,35.3466796875,-67.8564453125
3.8920814,-74.9658203125,33.3447265625,-70.2490234375
3.9357306,-74.9658203125,29.8291015625,-74.1552734375
3.9526801,-76.1376953125,28.2666015625,-79.1357421875
3.9922794,-76.7236328125,25.5322265625,-84.7509765625
4.0125433,-77.6513671875,24.5068359375,-88.4130859375
4.0525582,-77.9443359375,24.2138671875,-91.2939453125
4.0771925,-77.9443359375,32.6123046875,-91.7822265625
4.1147089,-78.5791015625,41.7431640625,-81.3818359375
4.1328155,-77.9931640625,50.1904296875,-63.6083984375
4.1664313,-76.7724609375,54.9267578125,-47.7392578125
4.2036941,-75.4541015625,59.5654296875,-37.0947265625
4.2260953,-73.6474609375,61.7138671875,-31.2353515625
4.2550855,-72.5244140625,61.4697265625,-28.5986328125
4.2851236,-71.6943359375,60.0537109375,-29.3798828125
4.3135793,-70.6689453125,59.0283203125,-34.5556640625
4.3476412,-71.0107421875,58.5400390625,-39.3408203125
4.38364,-70.3759765625,57.5634765625,-42.8564453125
4.407496,-70.5712890625,56.1962890625,-43.8818359375
4.4519302,-70.4248046875,54.8291015625,-45.3955078125
4.4642478,-71.3037109375,52.6318359375,-47.4951171875
4.4996195,-71.4990234375,50.3369140625,-50.4736328125
4.5276708,-71.9384765625,48.1396484375,-54.2822265625
4.5595882,-72.3291015625,46.4794921875,-59.4580078125
4.5895709,-73.5009765625,43.4033203125,-63.3154296875
4.6167382,-73.9892578125,41.5966796875,-68.1494140625
4.6455154,-74.0380859375,40.0341796875,-72.4462890625
4.6770252,-73.9404296875,38.3251953125,-76.0107421875
4.7057939,-75.6982421875,37.0068359375,-79.2822265625
4.7393822,-75.9912109375,35.0537109375,-82.3583984375
4.7688157,-76.6259765625,32.9052734375,-85.0439453125
4.7977784,-77.1630859375,30.8056640625,-88.8037109375
4.8293451,-77.2607421875,28.5595703125,-92.8564453125
4.8578996,-77.9931640625,26.7529296875,-97.0068359375
4.8869899,-78.9208984375,25.7763671875,-100.5224609375
4.9200903,-79.0185546875,28.6572265625,-103.4033203125
4.9481125,-80.1904296875,39.2041015625,-100.8642578125
4.9828253,-79.6044921875,48.0908203125,-85.4345703125
5.008774,-79.1650390625,55.1220703125,-66.4404296875
5.0379872,-77.7001953125,59.6142578125,-51.4501953125
5.0673617,-75.2099609375,64.0576171875,-42.2705078125
5.0993225,-73.6474609375,67.7197265625,-36.7041015625
5.1286278,-71.5966796875,66.7919921875,-33.6279296875
5.1786608,-70.8154296875,65.3759765625,-34.8974609375
5.1989403,-70.2783203125,64.6923828125,-40.1220703125
5.2365513,-70.0341796875,64.6435546875,-45.3955078125
5.2556557,-70.5712890625,63.4228515625,-47.3974609375
5.2790529,-70.8642578125,61.7138671875,-48.4716796875
5.3116507,-69.9365234375,60.2490234375,-49.9365234375
5.3593824,-70.0830078125,58.0517578125,-52.4755859375
5.379838,-70.9130859375,55.1708984375,-55.2587890625
5.4226291,-70.9619140625,53.0224609375,-58.6279296875
5.4433244,-71.6455078125,50.8740234375,-63.1201171875
5.4602688,-71.8408203125,49.1162109375,-67.8076171875
5.4942239,-72.2314453125,47.2119140625,-72.2998046875
5.5195291,-73.1103515625,44.5263671875,-76.5478515625
5.5659549,-73.8427734375,42.9150390625,-79.3310546875
5.5862407,-74.9658203125,41.0595703125,-82.8466796875
5.609439,-75.5517578125,38.7646484375,-86.3134765625
5.6398841,-75.4541015625,36.5185546875,-89.3896484375
5.674785,-76.7724609375,33.9794921875,-93.1005859375
5.7152452,-77.1630859375,31.7333984375,-97.3974609375
5.736557,-77.6025390625,30.4150390625,-101.7919921875
5.779231,-78.6279296875,30.0732421875,-105.6494140625
5.8009065,-78.7744140625,36.4697265625,-106.9677734375
5.8385306,-79.2138671875,47.0166015625,-98.7158203125
5.8576179,-79.5556640625,55.5126953125,-79.6728515625
5.8972037,-78.4326171875,61.5185546875,-60.8740234375
5.9172843,-76.3818359375,66.6455078125,-46.6162109375
5.9609517,-75.2587890625,70.7958984375,-38.5107421875
5.9812852,-72.4755859375,72.8955078125,-32.3583984375
6.0191951,-70.8642578125,71.0888671875,-29.8193359375
6.0385236,-70.0830078125,69.3798828125,-31.6259765625
6.0800099,-69.1552734375,68.8916015625,-37.1923828125
6.1007921,-69.3505859375,67.5244140625,-41.0986328125
6.1397806,-69.5947265625,66.4501953125,-43.2470703125
6.1599631,-69.3994140625,65.1806640625,-45.1513671875
6.202172,-69.9365234375,62.8369140625,-46.2744140625
6.2222753,-69.5458984375,61.1279296875,-49.3505859375
6.2603273,-69.6923828125,58.2470703125,-53.0126953125
6.2795604,-70.7666015625,55.5615234375,-56.6748046875
6.3192094,-70.8154296875,52.4853515625,-61.6552734375
6.3394302,-71.5478515625,50.5322265625,-66.4404296875
6.3781083,-72.2802734375,48.1884765625,-71.0791015625
6.3976162,-72.7197265625,45.2587890625,-76.1083984375
6.4385222,-73.7451171875,43.5009765625,-80.1123046875
6.4586704,-74.1845703125,41.2548828125,-82.1630859375
6.4982951,-74.8193359375,39.4970703125,-86.3134765625
6.5187736,-75.6494140625,36.3720703125,-90.0244140625
6.5616465,-76.0400390625,34.1748046875,-93.6865234375
6.5820005,-76.1865234375,31.9287109375,-98.1298828125
6.6227034,-76.9677734375,30.4150390625,-102.6708984375
6.6418477,-77.2119140625,29.3408203125,-105.4052734375
6.6814064,-77.9931640625,37.1044921875,-106.9189453125
6.7029361,-78.6279296875,46.9189453125,-97.8857421875
6.739856,-78.7744140625,55.4638671875,-78.5498046875
6.7601114,-77.8955078125,60.6884765625,-59.8974609375
6.8015354,-76.2841796875,66.0107421875,-46.5185546875
6.8230446,-74.5263671875,69.2822265625,-38.1201171875
6.8638719,-73.2568359375,71.9189453125,-33.0419921875
6.8840506,-70.9619140625,69.8193359375,-30.6005859375
6.9230786,-70.8642578125,68.1103515625,-33.5302734375
6.9424944,-69.3505859375,67.5244140625,-39.1943359375
6.9841192,-69.9853515625,66.4990234375,-42.5146484375
7.0033181,-70.3759765625,65.3759765625,-44.7119140625
7.0443569,-69.8876953125,63.7158203125,-46.4208984375
7.0660219,-70.0341796875,61.2255859375,-48.1787109375
7.1036578,-70.9619140625,57.9541015625,-51.2548828125
7.125298,-70.6689453125,55.4638671875,-55.1123046875
7.1637293,-71.0107421875,53.0224609375,-59.5556640625
7.1851662,-72.4755859375,50.2392578125,-63.9990234375
7.2224247,-72.7197265625,47.5048828125,-68.2958984375
7.2434166,-73.4521484375,45.9423828125,-73.3251953125
7.2827283,-73.6962890625,43.2568359375,-77.1826171875
7.3035749,-74.7705078125,40.6689453125,-80.4541015625
7.3533386,-75.9912109375,38.7646484375,-82.9443359375
7.3735961,-76.1376953125,36.3232421875,-86.4111328125
7.4097892,-76.3818359375,34.2236328125,-90.3662109375
7.4299064,-77.8955078125,31.3427734375,-94.8583984375
7.4662944,-77.4072265625,29.6337890625,-99.6435546875
7.4945224,-78.1396484375,27.2412109375,-104.1357421875
7.5311573,-78.5791015625,26.7529296875,-107.5048828125
7.5503477,-79.7998046875,33.9306640625,-108.4326171875
7.5875301,-80.6298828125,44.5751953125,-100.5224609375
7.6089022,-80.4345703125,52.7294921875,-81.3330078125
7.6471773,-79.6044921875,57.7587890625,-63.7060546875
7.6662403,-79.1650390625,61.9091796875,-51.2060546875
7.7057727,-77.3095703125,64.5947265625,-44.1748046875
7.7248979,-75.2587890625,66.2060546875,-41.0009765625
7.7721803,-73.6962890625,64.3505859375,-41.6845703125
7.7923909,-73.0126953125,63.2275390625,-45.8349609375
7.8291649,-72.2314453125,63.0810546875,-50.2294921875
7.8484961,-72.4267578125,61.2744140625,-53.7939453125
7.8838015,-72.8662109375,60.3955078125,-54.8681640625
7.903886,-72.7685546875,59.4189453125,-56.3330078125
7.9480099,-73.5498046875,58.0517578125,-57.8466796875
7.9676485,-73.0126953125,55.2685546875,-61.0205078125
8.007482,-73.3056640625,53.4130859375,-64.5849609375
8.027839,-73.8916015625,50.3857421875,-68.9306640625
8.0739432,-74.6240234375,48.9697265625,-72.9833984375
8.08527,-74.5263671875,46.4306640625,-76.5478515625
8.1290669,-75.8935546875,44.1845703125,-80.7470703125
8.1484277,-76.7724609375,42.0849609375,-84.8486328125
8.190074,-77.7001953125,41.1572265625,-88.1201171875
8.210637,-77.2119140625,39.8388671875,-91.1962890625
8.2497559,-77.8955078125,36.5673828125,-93.5888671875
8.2697827,-78.6279296875,34.7607421875,-97.4951171875
8.3090568,-78.7255859375,32.2216796875,-101.7431640625
8.328977,-79.1650390625,30.6103515625,-105.8447265625
8.3680901,-79.8486328125,29.2919921875,-110.2392578125
8.3894883,-80.2392578125,32.1728515625,-112.3388671875
8.4316241,-80.7763671875,41.0595703125,-111.5087890625
8.4517234,-81.2646484375,51.5576171875,-97.2509765625
8.491385,-81.1181640625,58.6376953125,-77.7685546875
8.5115075,-81.0205078125,64.3017578125,-61.3623046875
8.5608356,-79.0185546875,69.0380859375,-50.5712890625
8.580875,-77.6513671875,71.9677734375,-44.3701171875
8.5987474,-74.9658203125,72.1630859375,-41.2939453125
8.6453629,-74.0380859375,69.6728515625,-42.1240234375
8.6596992,-72.6220703125,70.2587890625,-46.5185546875
8.7030009,-72.1337890625,69.1845703125,-51.1572265625
8.7220641,-71.9873046875,68.7939453125,-53.9892578125
8.760623,-71.9873046875,67.2314453125,-55.3564453125
8.7807992,-71.5966796875,66.4990234375,-56.8701171875
8.8234997,-71.4990234375,64.2529296875,-58.9208984375
8.8401159,-71.6455078125,61.7138671875,-61.8994140625
8.8798584,-71.5966796875,60.0048828125,-65.5615234375
8.9003863,-71.9384765625,58.3447265625,-69.3212890625
8.9312708,-72.8173828125,55.5126953125,-74.0576171875
8.9717311,-73.1591796875,53.2666015625,-78.5009765625
8.9920511,-74.1845703125,51.4111328125,-82.0166015625
9.0457718,-74.4287109375,50.0927734375,-86.1181640625
9.0518568,-74.8681640625,47.7978515625,-89.6337890625
9.0956302,-75.9423828125,45.5029296875,-92.6611328125
9.1083565,-76.1376953125,43.1103515625,-95.9814453125
9.1429723,-76.2841796875,40.7177734375,-99.5947265625
9.1707752,-76.6259765625,38.6181640625,-103.9404296875
9.2133746,-76.8212890625,36.8603515625,-108.3837890625
9.2317387,-77.9931640625,36.1279296875,-112.9736328125
9.2622972,-78.1396484375,40.8642578125,-114.4384765625
9.295301,-78.5791015625,51.8017578125,-109.7998046875
9.3224086,-79.4091796875,60.8837890625,-91.5380859375
9.3638918,-79.1162109375,68.1591796875,-71.1279296875
9.3834968,-78.8720703125,72.3583984375,-55.7958984375
9.4132971,-77.0654296875,76.9482421875,-45.6884765625
9.4540446,-74.8681640625,79.0966796875,-38.4130859375
9.4754952,-73.4521484375,78.5107421875,-34.2138671875
9.514341,-71.6943359375,76.8017578125,-36.3134765625
9.5352534,-69.8388671875,76.0693359375,-40.5126953125
9.5648212,-70.5712890625,75.1904296875,-45.2978515625
9.5922034,-69.7412109375,73.7744140625,-48.2763671875
9.6265513,-69.6435546875,72.3095703125,-50.1806640625
9.6536116,-69.5458984375,69.2333984375,-51.3525390625
9.6830494,-69.3017578125,67.3779296875,-52.7197265625
9.7163378,-69.7412109375,64.1552734375,-56.2841796875
9.7451722,-70.0341796875,61.4208984375,-60.3369140625
9.7780064,-70.4248046875,58.7841796875,-65.1220703125
9.8067879,-71.7919921875,56.6357421875,-69.9560546875
9.8348794,-71.9384765625,53.1201171875,-74.3017578125
9.8629618,-72.2314453125,50.4345703125,-78.2080078125
9.8962584,-72.3779296875,49.1650390625,-83.0419921875
9.9240487,-73.7451171875,46.2841796875,-86.3623046875
9.9573983,-74.4287109375,44.1357421875,-89.2431640625
9.9860097,-74.5751953125,41.7919921875,-92.6123046875
10.0159201,-74.9658203125,38.6181640625,-96.5185546875
10.0489455,-75.6005859375,35.9326171875,-101.5966796875
10.0759292,-76.1376953125,34.4677734375,-105.6494140625
10.1050933,-76.3818359375,33.0029296875,-109.4580078125
10.1381943,-76.6748046875,40.2783203125,-111.1181640625
10.1658093,-78.0419921875,51.0205078125,-101.3525390625
10.1985147,-78.3349609375,58.6376953125,-83.2373046875
10.2275405,-77.7490234375,64.8388671875,-62.6806640625
10.2558258,-76.7236328125,68.8916015625,-48.8134765625
10.2862988,-75.9423828125,72.0654296875,-40.0244140625
10.3178495,-73.5498046875,72.8955078125,-34.5556640625
10.3486961,-71.9384765625,71.6748046875,-31.9677734375
10.3809325,-69.8876953125,70.4052734375,-34.3115234375
10.4085066,-68.9111328125,69.2822265625,-39.7314453125
10.4372129,-68.6669921875,68.5009765625,-44.9560546875
10.4691841,-68.4228515625,67.1337890625,-46.8115234375
10.498512,-68.5693359375,64.7412109375,-48.2275390625
10.5614933,-68.3740234375,62.2509765625,-50.2783203125
10.56266,-68.8134765625,59.4189453125,-52.9150390625
10.5892344,-69.0087890625,56.5869140625,-56.5771484375
10.6180099,-69.2529296875,54.3408203125,-60.8740234375
10.6700025,-69.8876953125,51.2158203125,-65.3662109375
10.6914835,-70.4736328125,48.8232421875,-70.4443359375
10.728773,-71.2548828125,46.7236328125,-75.4736328125
10.7488394,-71.7919921875,44.6728515625,-79.5263671875
10.7687436,-72.4267578125,41.6943359375,-83.3837890625
10.8160187,-72.6708984375,39.9365234375,-85.9228515625
10.8297031,-73.1591796875,37.6416015625,-89.8291015625
10.8581143,-73.5986328125,35.0048828125,-93.7353515625
10.9052123,-74.3798828125,32.2216796875,-97.7880859375
10.9264362,-74.5751953125,30.5126953125,-102.9638671875
10.9682404,-75.8935546875,28.9501953125,-107.5048828125
10.9879865,-76.4794921875,30.1220703125,-110.2880859375
11.0261228,-76.3818359375,38.4228515625,-110.1904296875
11.0474676,-77.3583984375,48.6279296875,-99.1064453125
11.0711805,-77.7490234375,54.8291015625,-78.9892578125
11.1030359,-77.1142578125,60.3955078125,-61.8994140625
11.1503096,-76.9189453125,64.0087890625,-50.1318359375
11.172714,-74.5751953125,67.3291015625,-43.4423828125
11.1901228,-73.3056640625,67.6220703125,-40.0732421875
11.2356696,-71.8408203125,65.1806640625,-40.7568359375
11.2558941,-71.0595703125,64.3017578125,-45.9814453125
11.2972371,-69.6923828125,63.2763671875,-50.5712890625
11.3188076,-68.9599609375,61.9091796875,-53.2080078125
11.3433906,-69.7900390625,60.5908203125,-54.3310546875
11.3761243,-68.8623046875,59.0283203125,-55.9912109375
11.4204425,-68.9111328125,56.4404296875,-58.0908203125
11.4403887,-69.2529296875,53.8037109375,-60.5810546875
11.4884159,-69.8876953125,52.0458984375,-64.4873046875
11.5076763,-70.2294921875,49.6533203125,-68.9794921875
11.542368,-70.8154296875,47.0654296875,-72.5439453125
11.5549353,-71.0595703125,45.0146484375,-76.8896484375
11.5997157,-71.7431640625,43.8427734375,-81.3818359375
11.6301302,-72.5244140625,41.5966796875,-84.6533203125
11.6461517,-72.3291015625,40.0341796875,-88.4130859375
11.6731755,-73.5009765625,37.2509765625,-90.6591796875
11.7198795,-73.9892578125,35.4931640625,-93.3935546875
11.7407671,-74.8193359375,33.0029296875,-97.7392578125
11.7785513,-75.0634765625,30.8056640625,-102.1337890625
11.7986802,-75.6982421875,29.6337890625,-106.5283203125
11.8392787,-76.4794921875,29.3408203125,-109.6533203125
11.8595039,-77.3095703125,36.5673828125,-111.1669921875
11.9107283,-77.6025390625,46.0888671875,-104.6728515625
11.9320716,-77.7978515625,54.6337890625,-86.2158203125
11.9479612,-77.0654296875,60.5419921875,-67.6611328125
11.9912144,-76.6748046875,64.8388671875,-53.6474609375
12.0113124,-75.9912109375,68.5986328125,-45.4931640625
12.049595,-74.2822265625,69.6728515625,-41.0009765625
12.0698661,-72.1826171875,68.4521484375,-40.0244140625
12.1112164,-70.1318359375,67.2802734375,-43.5888671875
12.1313617,-69.4970703125,66.5966796875,-48.6181640625
12.1741238,-68.9599609375,66.3037109375,-51.7919921875
12.1939248,-69.1064453125,65.1806640625,-52.9638671875
12.2313862,-68.7158203125,64.4970703125,-54.4287109375
12.2506847,-68.6181640625,62.2021484375,-55.9912109375
12.2939354,-68.6181640625,59.8583984375,-58.7255859375
12.3201936,-68.3251953125,58.4912109375,-61.8994140625
12.337868,-68.5693359375,55.2197265625,-65.5615234375
12.3714925,-69.1552734375,54.1455078125,-70.1513671875
12.4134713,-69.3505859375,51.8994140625,-74.1552734375
12.4326696,-70.0830078125,50.1416015625,-78.4033203125
12.4724993,-70.9130859375,48.1884765625,-81.7724609375
12.4928188,-70.9130859375,46.5771484375,-85.2392578125
12.5389581,-71.7919921875,44.7216796875,-88.4619140625
12.5518402,-71.4501953125,42.7685546875,-91.0986328125
12.5800122,-72.1826171875,40.9619140625,-94.8095703125
12.6084939,-72.3291015625,38.8134765625,-100.2294921875
12.6532971,-72.8662109375,37.1044921875,-104.7705078125
12.673546,-73.7939453125,36.9580078125,-108.8232421875
12.7127945,-74.0869140625,42.2802734375,-110.5810546875
12.7327827,-74.9169921875,53.9013671875,-104.2822265625
12.7601145,-75.3076171875,61.7138671875,-85.7275390625
12.7931293,-75.3564453125,68.4033203125,-65.8544921875
12.8210567,-75.2099609375,73.5791015625,-50.5712890625
12.8675198,-73.9892578125,77.4365234375,-40.6591796875
12.8890824,-72.2314453125,80.1708984375,-33.8232421875
12.9257587,-70.0830078125,78.3154296875,-30.6494140625
12.9461142,-67.8857421875,77.1435546875,-32.4560546875
12.9902111,-66.5185546875,76.1669921875,-36.8017578125
13.0081083,-66.2255859375,75.6787109375,-40.7568359375
13.0453235,-65.9814453125,74.4580078125,-43.0029296875
13.065768,-65.7373046875,72.9931640625,-44.2724609375
13.1144872,-65.4443359375,71.0400390625,-45.7373046875
13.1337627,-65.0537109375,68.6962890625,-48.6669921875
13.1533919,-65.8349609375,66.4501953125,-51.6455078125
13.2071912,-66.1279296875,63.4228515625,-55.7958984375
13.2286612,-66.3720703125,60.8837890625,-60.2880859375
13.2448914,-66.6162109375,58.4423828125,-65.1220703125
13.2883208,-66.8115234375,55.7568359375,-69.3701171875
13.3105402,-67.0556640625,54.0966796875,-73.3251953125
13.3484547,-67.7392578125,52.2412109375,-77.6220703125
13.3685561,-69.0087890625,49.7998046875,-80.2099609375
13.4262042,-69.3994140625,48.2861328125,-83.2861328125
13.4272289,-69.7412109375,45.3076171875,-87.7783203125
13.4554327,-70.2783203125,42.7197265625,-91.9287109375
13.5038824,-70.7666015625,41.0107421875,-97.3486328125
13.534013,-71.4013671875,39.6435546875,-100.9619140625
13.5457931,-71.6943359375,43.3056640625,-103.6962890625
13.5750635,-72.4755859375,53.4130859375,-100.7177734375
13.6080863,-72.9150390625,62.3486328125,-84.9951171875
13.6540391,-73.2568359375,69.7705078125,-63.9990234375
13.6649367,-73.0615234375,74.9462890625,-46.8603515625
13.6983074,-72.1337890625,78.8037109375,-34.7509765625
13.7444823,-70.3271484375,81.3427734375,-27.3291015625
13.7551449,-68.4716796875,81.0009765625,-22.6904296875
13.8017959,-66.9580078125,78.9501953125,-22.6416015625
13.8222333,-65.3955078125,77.5341796875,-27.4267578125
13.8596388,-64.3212890625,76.8017578125,-32.6025390625
13.8810149,-63.3447265625,75.3369140625,-35.2880859375
13.9071637,-63.8330078125,73.1884765625,-36.0205078125
13.9512149,-63.3447265625,72.0166015625,-38.4130859375
13.9737066,-62.6611328125,68.8916015625,-40.6591796875
13.9973295,-63.1494140625,66.6455078125,-44.3212890625
14.0444949,-63.3447265625,63.4716796875,-48.5693359375
14.0584152,-63.7841796875,60.5908203125,-53.4521484375
14.0880512,-64.1748046875,58.1494140625,-57.6513671875
14.1341466,-64.6142578125,55.2197265625,-62.7783203125
14.1494332,-65.2001953125,53.0224609375,-67.0751953125
14.1919766,-65.5419921875,51.3623046875,-70.8349609375
14.2094171,-66.9091796875,48.0419921875,-74.0087890625
14.2369951,-67.7880859375,45.0146484375,-77.9150390625
14.2703262,-67.9345703125,42.8662109375,-81.5283203125
14.2995886,-68.6669921875,40.1318359375,-86.8505859375
14.3286782,-69.1064453125,37.5439453125,-91.2451171875
14.3617979,-69.7412109375,35.8349609375,-96.0791015625
14.3925429,-70.9130859375,36.0302734375,-99.4970703125
14.419623,-71.7431640625,44.0380859375,-100.0830078125
14.4521801,-71.8896484375,53.5107421875,-89.6826171875
14.4795096,-72.7685546875,60.9814453125,-69.9560546875
14.5133008,-72.8173828125,66.0107421875,-51.8896484375
14.5409552,-72.5244140625,70.1123046875,-39.1943359375
14.5727176,-71.0595703125,73.1884765625,-30.6005859375
14.6024562,-68.3740234375,73.7255859375,-26.6455078125
14.6317903,-67.4951171875,71.1376953125,-25.6201171875
14.6602894,-65.7861328125,69.9658203125,-29.6728515625
14.6936375,-64.0283203125,68.5009765625,-35.7763671875
14.7229695,-64.0283203125,67.7685546875,-39.2431640625
14.7503279,-63.8330078125,66.4501953125,-40.8056640625
14.7829442,-63.7841796875,63.9111328125,-41.7333984375
14.8111134,-63.3935546875,61.2255859375,-44.3212890625
14.843653,-64.4677734375,58.7841796875,-46.8603515625
14.8731158,-64.5654296875,56.2451171875,-51.0107421875
14.9033303,-64.4677734375,54.1943359375,-55.5517578125
14.933967,-65.0048828125,51.2158203125,-59.9951171875
14.9634914,-65.9814453125,49.4580078125,-64.6826171875
14.9917174,-66.2744140625,46.8701171875,-68.3447265625
15.0256366,-67.5927734375,45.1123046875,-72.9345703125
15.0525263,-68.3740234375,43.0615234375,-75.4736328125
15.0860591,-69.1552734375,41.1572265625,-79.1845703125
15.1152921,-69.3017578125,38.2763671875,-81.8212890625
15.1430163,-69.8876953125,36.1279296875,-87.2412109375
15.1757842,-70.7177734375,34.9072265625,-91.5380859375
15.2043063,-71.1083984375,32.8076171875,-95.7373046875
15.2355935,-71.8896484375,32.9541015625,-98.6181640625
15.2666114,-72.2802734375,41.0107421875,-99.8388671875
15.2956069,-72.9638671875,51.1181640625,-91.4404296875
15.325241,-73.5009765625,58.0029296875,-72.6904296875
15.3577701,-73.9892578125,63.1298828125,-54.6240234375
15.3851855,-73.5009765625,68.1591796875,-42.0263671875
15.41554,-72.1337890625,70.0146484375,-34.2626953125
15.4474055,-70.3271484375,70.1611328125,-30.0634765625
15.4764803,-69.1552734375,67.7685546875,-29.7216796875
15.5080433,-67.2509765625,66.9873046875,-34.3115234375
15.5373919,-65.7861328125,66.5478515625,-40.3173828125
15.5675081,-65.2978515625,65.3271484375,-43.0029296875
15.616103,-64.9072265625,63.7646484375,-45.1025390625
15.6353804,-65.2490234375,62.6904296875,-46.3720703125
15.6556352,-65.2490234375,60.5908203125,-47.7880859375
15.6896697,-65.6396484375,58.4423828125,-51.5478515625
15.7155632,-65.3955078125,56.0009765625,-54.9169921875
15.7454747,-65.4443359375,53.8525390625,-59.3603515625
15.7793415,-65.5419921875,52.1923828125,-64.1455078125
15.8079506,-65.7373046875,49.9951171875,-68.3935546875
15.8405747,-65.9814453125,47.8466796875,-72.6416015625
15.8679642,-67.0068359375,46.0400390625,-75.7177734375
15.8984854,-67.3974609375,44.4287109375,-79.7216796875
15.9454581,-68.4228515625,42.1826171875,-83.1884765625
15.9594606,-68.1787109375,40.1806640625,-86.1669921875
15.9882275,-68.8623046875,37.4951171875,-90.4638671875
16.0180506,-69.5458984375,34.8583984375,-95.5419921875
16.0496178,-69.8388671875,33.9794921875,-100.3759765625
16.080972,-70.7666015625,34.8095703125,-103.8916015625
16.1259176,-71.1083984375,43.6962890625,-104.4287109375
16.1473761,-71.7919921875,53.3154296875,-94.8095703125
16.168721,-72.8173828125,61.1279296875,-74.3505859375
16.2161105,-73.0615234375,66.5966796875,-54.7216796875
16.2362295,-72.3779296875,71.3818359375,-42.2705078125
16.2627374,-71.2060546875,74.5556640625,-32.4560546875
16.2884241,-69.1064453125,75.0927734375,-27.0361328125
16.3372713,-67.2998046875,73.4814453125,-26.3525390625
16.3563698,-65.4931640625,72.4072265625,-29.5263671875
16.396718,-63.9794921875,71.1376953125,-35.0927734375
16.4163256,-63.1494140625,70.2587890625,-39.3896484375
16.4577484,-63.1982421875,68.5009765625,-41.1474609375
16.4780547,-62.8564453125,67.3779296875,-42.4169921875
16.5182038,-62.1728515625,65.1806640625,-44.6142578125
16.5376191,-63.0517578125,62.3974609375,-46.7138671875
16.5604222,-62.7587890625,59.3701171875,-50.9619140625
16.5936929,-62.7099609375,56.6845703125,-56.6748046875
16.6235143,-63.9794921875,53.9501953125,-60.2880859375
16.6509067,-63.8330078125,51.4599609375,-65.7080078125
16.7016152,-64.3701171875,49.3115234375,-70.4443359375
16.7231351,-65.3955078125,46.9189453125,-74.4970703125
16.7591509,-65.9326171875,44.8193359375,-78.8916015625
16.7749618,-67.1533203125,41.8896484375,-82.0654296875
16.8164456,-67.8369140625,39.2041015625,-85.7275390625
16.8377491,-68.2275390625,37.4951171875,-89.8779296875
16.8795311,-69.1552734375,35.1025390625,-95.0537109375
16.9012265,-69.0576171875,33.2958984375,-100.0341796875
16.9434412,-69.8388671875,31.4892578125,-104.0380859375
16.9651857,-70.8642578125,36.2744140625,-107.9931640625
17.0008031,-71.4990234375,46.7236328125,-103.4033203125
17.0160731,-72.2802734375,56.1962890625,-87.2412109375
17.0567235,-72.8662109375,62.2509765625,-65.3173828125
17.0781809,-72.7197265625,67.3779296875,-48.3251953125
17.1207181,-72.3291015625,70.9912109375,-37.1923828125
17.1397742,-70.6689453125,73.0908203125,-29.9658203125
17.1839464,-69.1064453125,71.6748046875,-26.3037109375
17.1971166,-66.9580078125,69.3310546875,-26.3037109375
17.2241193,-65.5419921875,68.0126953125,-32.2607421875
17.2579716,-64.0283203125,67.2314453125,-37.6806640625
17.3037366,-62.9052734375,65.1806640625,-40.0732421875
17.3248233,-63.0029296875,62.7392578125,-42.7587890625
17.36286,-63.5888671875,61.0302734375,-44.0283203125
17.3835781,-63.1494140625,57.3193359375,-46.8603515625
17.4224558,-63.1494140625,55.0732421875,-49.6923828125
17.4426447,-63.6376953125,51.9482421875,-55.5029296875
17.4656525,-64.2724609375,49.0673828125,-59.4091796875
17.4988139,-63.7841796875,45.7470703125,-64.4873046875
17.5269191,-65.2978515625,42.4267578125,-69.1748046875
17.5553771,-65.9326171875,40.0341796875,-74.1064453125
17.5890158,-66.6650390625,37.4951171875,-78.3056640625
17.6313036,-67.3974609375,35.0048828125,-82.3583984375
17.652439,-68.1787109375,32.7099609375,-85.2880859375
17.6937615,-69.3017578125,29.9755859375,-88.4619140625
17.7155981,-69.4970703125,26.8017578125,-93.3447265625
17.7553364,-69.2041015625,24.3603515625,-98.9111328125
17.770971,-70.5712890625,21.7236328125,-104.4775390625
17.7972016,-71.4013671875,21.0400390625,-109.3115234375
17.8261326,-72.2314453125,27.5341796875,-110.7763671875
17.8589631,-73.4033203125,37.7392578125,-103.9404296875
17.8893068,-74.0380859375,45.0634765625,-83.9208984375
17.9218446,-74.7216796875,51.4111328125,-63.4130859375
17.9490716,-74.5751953125,54.7802734375,-49.5947265625
17.9784113,-73.7451171875,57.6611328125,-40.9033203125
18.026722,-72.4755859375,57.8564453125,-36.9970703125
18.0402401,-70.8154296875,55.8544921875,-35.7763671875
18.0917083,-69.2529296875,53.9501953125,-38.9990234375
18.1013024,-67.9833984375,53.0712890625,-45.7861328125
18.1288163,-66.4697265625,52.2412109375,-50.0341796875
18.1639802,-65.9814453125,50.5810546875,-51.8896484375
18.2085174,-66.3720703125,48.1884765625,-52.7197265625
18.2278748,-66.2744140625,46.0888671875,-54.4287109375
18.26924,-66.6162109375,43.7451171875,-56.7236328125
18.2888709,-67.0068359375,40.6201171875,-60.5322265625
18.3305936,-67.1044921875,38.3740234375,-65.4150390625
18.3426057,-67.2021484375,35.2001953125,-70.1025390625
18.372288,-67.4462890625,33.2958984375,-74.0087890625
18.4011163,-68.2763671875,30.8544921875,-78.7451171875
18.4319786,-69.2529296875,28.9990234375,-82.9443359375
18.4620313,-70.3271484375,26.3134765625,-86.6064453125
18.4947839,-70.9130859375,24.5068359375,-89.6826171875
18.5239854,-71.9384765625,22.3583984375,-91.9775390625
18.551357,-72.2314453125,19.8681640625,-96.1767578125
18.5832246,-72.6220703125,17.0849609375,-101.5966796875
18.6282039,-73.5986328125,15.5712890625,-105.9912109375
18.6475328,-73.7451171875,14.2529296875,-110.5322265625
18.6897827,-74.8193359375,18.9404296875,-113.0712890625
18.7100115,-74.8193359375,30.1708984375,-109.4580078125
18.7359503,-76.2353515625,38.3740234375,-92.7587890625
18.7673486,-76.8212890625,45.3564453125,-70.9326171875
18.7940196,-76.4794921875,49.3603515625,-54.5751953125
18.8246183,-76.7724609375,52.6806640625,-44.8583984375
18.8551977,-75.4541015625,55.0732421875,-40.1708984375
18.8817239,-73.5009765625,53.2177734375,-37.7294921875
18.9170777,-72.3291015625,52.2900390625,-40.7568359375
18.9442569,-70.6689453125,51.4599609375,-47.0556640625
18.974187,-69.2529296875,51.4111328125,-52.0361328125
19.0063837,-68.2763671875,50.1416015625,-53.7451171875
19.0348634,-68.2763671875,48.7255859375,-54.6728515625
19.0697445,-67.8369140625,46.4794921875,-55.8935546875
19.121525,-68.2275390625,44.6240234375,-58.4326171875
19.1243869,-68.1787109375,42.2314453125,-61.6064453125
19.1741066,-68.1298828125,39.3505859375,-64.9755859375
19.1861502,-68.5693359375,37.8857421875,-69.6142578125
19.2159487,-68.9111328125,35.3466796875,-74.7900390625
19.2609142,-68.7158203125,32.9052734375,-78.8916015625
19.2814972,-69.5947265625,31.2939453125,-83.3349609375
19.3232737,-70.0341796875,30.1220703125,-87.3388671875
19.337165,-70.5224609375,27.6806640625,-89.6826171875
19.3641694,-71.4013671875,25.2880859375,-92.6123046875
19.3968904,-71.7431640625,23.1884765625,-96.8115234375
19.4267815,-72.3779296875,20.4541015625,-101.3037109375
19.4587402,-72.1337890625,18.5009765625,-106.7236328125
19.4899624,-73.0615234375,17.3291015625,-111.1181640625
19.5190661,-73.2568359375,21.5771484375,-114.3896484375
19.5488167,-73.3544921875,32.1240234375,-112.2900390625
19.6013306,-74.5263671875,41.3525390625,-96.0791015625
19.6081315,-74.5751953125,48.2861328125,-73.2275390625
19.6373401,-75.9423828125,53.9013671875,-55.4541015625
19.6711704,-76.0888671875,57.5634765625,-43.7841796875
19.6990669,-75.0146484375,60.8837890625,-36.2158203125
19.7278705,-73.0126953125,60.1513671875,-32.3583984375
19.7622252,-71.7431640625,59.0283203125,-32.1630859375
19.7903342,-69.3505859375,57.9541015625,-37.7783203125
19.8233756,-67.6416015625,56.5380859375,-42.4169921875
19.8518584,-67.1533203125,56.0498046875,-45.7861328125
19.8796923,-65.9814453125,55.3662109375,-47.1044921875
19.9123464,-65.8837890625,52.8759765625,-48.0322265625
19.9416748,-65.7861328125,50.0927734375,-49.3994140625
19.9699164,-65.7373046875,47.7001953125,-52.1337890625
20.0026344,-65.4931640625,45.4052734375,-56.3818359375
20.029588,-65.9326171875,43.0615234375,-61.0205078125
20.0627971,-66.2744140625,40.4248046875,-66.1474609375
20.0930092,-66.5185546875,38.0322265625,-71.1279296875
20.1213834,-66.7138671875,35.5908203125,-74.9365234375
20.1484303,-67.9833984375,34.6142578125,-79.1357421875
20.1868371,-68.0810546875,31.2451171875,-81.7236328125
20.2150719,-68.7158203125,29.3896484375,-84.9951171875
20.2452715,-69.3994140625,26.1669921875,-88.3642578125
20.2730062,-69.8388671875,23.7744140625,-93.2958984375
20.3026126,-70.7666015625,21.2841796875,-97.7880859375
20.3342201,-71.2548828125,20.1611328125,-103.8916015625
20.3632013,-71.3037109375,19.1357421875,-107.9443359375
20.3953941,-71.6943359375,27.3388671875,-109.8486328125
20.4257292,-72.1826171875,37.8369140625,-101.6943359375
20.4526919,-72.9150390625,46.2353515625,-80.8447265625
20.4837457,-73.6474609375,53.0224609375,-59.7998046875
20.5141827,-74.1357421875,57.7099609375,-43.2470703125
20.5424605,-73.3544921875,60.7861328125,-33.7255859375
20.5753552,-73.0615234375,63.1298828125,-27.2314453125
20.6052117,-71.4990234375,61.4208984375,-25.2294921875
20.6331854,-68.9111328125,60.0537109375,-27.2314453125
20.6662827,-66.9091796875,59.7607421875,-32.2607421875
20.6928908,-65.4931640625,58.4423828125,-36.8505859375
20.7222552,-64.7607421875,57.3193359375,-39.8779296875
20.7577138,-64.4189453125,55.6103515625,-40.7568359375
20.7822604,-64.7119140625,53.5107421875,-41.9775390625
20.81736,-63.9794921875,50.6787109375,-44.6142578125
20.8444041,-63.9306640625,47.9443359375,-47.3974609375
20.8751675,-64.5654296875,45.4541015625,-52.2802734375
20.906364,-64.4189453125,42.7685546875,-56.2841796875
20.9362198,-65.0537109375,40.3271484375,-61.6552734375
20.9692693,-65.2490234375,37.6904296875,-65.6591796875
20.9999739,-66.1767578125,35.3466796875,-69.5166015625
21.024803,-65.9814453125,32.9052734375,-75.1318359375
21.0548486,-67.2509765625,30.8056640625,-77.2802734375
21.0849295,-67.7392578125,28.6083984375,-81.4306640625
21.1153691,-68.5693359375,26.2158203125,-83.7255859375
21.1681991,-69.0576171875,22.2119140625,-88.7060546875
21.18685,-69.0087890625,20.2099609375,-95.0537109375
21.2065777,-70.2294921875,18.0615234375,-100.2294921875
21.2394756,-70.4248046875,18.4521484375,-104.1845703125
21.2671205,-71.3525390625,26.6552734375,-104.7705078125
21.2942797,-72.2802734375,37.0556640625,-95.3466796875
21.3313133,-72.8662109375,44.1357421875,-73.1787109375
21.3591121,-73.4521484375,49.9951171875,-52.3779296875
21.3919198,-74.1845703125,53.9501953125,-39.1455078125
21.4190141,-73.8916015625,57.4169921875,-31.0400390625
21.4669586,-72.8173828125,57.1728515625,-26.3037109375
21.487566,-71.4501953125,54.8779296875,-25.5224609375
21.5083529,-69.9853515625,53.0712890625,-29.3798828125
21.5568275,-68.2763671875,52.8271484375,-34.8486328125
21.5774675,-66.6162109375,51.1669921875,-39.0478515625
21.5990619,-65.2490234375,49.9951171875,-40.5615234375
21.6273231,-65.0048828125,47.3095703125,-41.0498046875
21.6628784,-64.6630859375,45.2587890625,-42.5146484375
21.6891462,-64.4189453125,42.5244140625,-44.4677734375
21.721688,-65.1513671875,39.8876953125,-49.1552734375
21.7680744,-65.3955078125,36.7626953125,-53.7939453125
21.7881966,-65.5908203125,34.5166015625,-57.4560546875
21.8080945,-65.3466796875,32.4169921875,-62.3876953125
21.8408827,-66.8115234375,30.0244140625,-66.0498046875
21.8710964,-67.2998046875,27.7783203125,-69.9072265625
21.9003902,-67.8369140625,26.0205078125,-73.3251953125
21.9311094,-68.8134765625,23.0908203125,-75.8642578125
21.9620387,-69.5458984375,20.5517578125,-79.5751953125
21.9926927,-69.9365234375,18.8427734375,-82.6513671875
22.0195125,-70.6201171875,16.0595703125,-88.1689453125
22.0716956,-71.5478515625,14.5458984375,-93.0517578125
22.0922113,-72.0849609375,13.2275390625,-97.1044921875
22.1124636,-72.4755859375,17.5244140625,-99.2529296875
22.145337,-73.2568359375,28.0224609375,-96.6650390625
22.1905477,-73.7451171875,36.3232421875,-80.0634765625
22.2106193,-74.4775390625,42.4755859375,-58.9208984375
22.2333867,-74.8193359375,45.8447265625,-42.8076171875
22.2631359,-75.4052734375,49.2138671875,-33.3837890625
22.2951224,-75.1611328125,50.8740234375,-28.2080078125
22.3244816,-74.2333984375,48.7255859375,-25.6689453125
22.3532976,-73.0615234375,48.6279296875,-29.5751953125
22.3837521,-70.9130859375,47.8466796875,-34.8486328125
22.4325611,-69.7900390625,47.0654296875,-39.4384765625
22.4521893,-68.5205078125,45.4052734375,-40.7568359375
22.4754651,-67.6416015625,43.5986328125,-41.1962890625
22.5065737,-68.4228515625,41.5966796875,-42.5634765625
22.5339018,-69.0087890625,39.6923828125,-44.7607421875
22.5676865,-67.8857421875,36.8603515625,-47.5927734375
22.5943471,-68.1787109375,35.4443359375,-50.8154296875
22.6282114,-68.8623046875,33.3935546875,-55.0634765625
22.6553516,-68.8623046875,30.8056640625,-59.6533203125
22.6873117,-69.0087890625,28.4130859375,-63.6572265625
22.714547,-69.3505859375,27.4365234375,-67.6611328125
22.7480141,-69.9365234375,26.1181640625,-70.5908203125
22.7732817,-71.2548828125,23.4814453125,-73.6669921875
22.8365135,-71.4501953125,21.5283203125,-76.0107421875
22.8372684,-71.9873046875,18.8916015625,-79.5263671875
22.865509,-72.3291015625,17.3291015625,-84.4091796875
22.8979622,-72.6220703125,15.6201171875,-89.0478515625
22.9270259,-73.2568359375,14.3994140625,-93.2470703125
22.959723,-73.6962890625,18.8427734375,-96.0302734375
22.9881721,-73.8916015625,30.0244140625,-93.1494140625
23.01637,-74.6240234375,38.7646484375,-77.0361328125
23.0493343,-74.5751953125,44.8681640625,-54.9658203125
23.099767,-75.0634765625,50.1416015625,-37.7294921875
23.1189033,-76.5771484375,53.2666015625,-26.4501953125
23.1398269,-75.6005859375,56.1962890625,-19.4677734375
23.1674889,-74.4287109375,54.6337890625,-16.6357421875
23.1968686,-73.0615234375,52.8271484375,-17.2705078125
23.2311046,-71.3525390625,52.8759765625,-22.7392578125
23.257754,-69.4970703125,52.2900390625,-26.8408203125
23.2848404,-68.1787109375,51.4111328125,-29.1357421875
23.3179102,-66.9580078125,50.3369140625,-30.4541015625
23.3472799,-66.8115234375,47.9931640625,-30.8935546875
23.4117845,-66.9580078125,45.6005859375,-33.8232421875
23.4130648,-66.5185546875,43.3544921875,-36.1181640625
23.4402134,-67.0556640625,40.7177734375,-40.1220703125
23.4899391,-66.3720703125,39.1064453125,-44.2236328125
23.5120508,-66.2255859375,36.6650390625,-48.9599609375
23.5541609,-66.3720703125,34.3212890625,-53.5498046875
23.5623516,-67.4462890625,32.2216796875,-57.7490234375
23.5904713,-67.7880859375,30.4150390625,-60.9716796875
23.6178847,-68.5693359375,28.5595703125,-64.1943359375
23.6521424,-68.6181640625,25.8740234375,-67.4169921875
23.6793277,-69.2529296875,23.5791015625,-71.3720703125
23.7253694,-69.1552734375,21.1865234375,-75.4248046875
23.7443115,-70.0341796875,19.6728515625,-79.9658203125
23.7680216,-70.3759765625,17.9638671875,-85.8251953125
23.8021037,-70.8154296875,20.4541015625,-88.2666015625
23.831859,-71.7919921875,30.8056640625,-88.2177734375
23.8687217,-71.9384765625,39.7412109375,-75.4248046875
23.8928035,-72.0361328125,47.3095703125,-53.7451171875
23.9261767,-72.7685546875,52.8271484375,-33.8720703125
23.9537719,-72.9638671875,57.8076171875,-19.0283203125
23.9849545,-73.2080078125,61.9091796875,-11.3623046875
24.0128868,-73.0126953125,61.9091796875,-6.0400390625
24.0437648,-71.5966796875,59.9072265625,-3.9892578125
24.0745998,-69.2529296875,58.9794921875,-7.6513671875
24.1017165,-68.0810546875,57.5146484375,-12.5830078125
24.1510158,-66.2255859375,56.7333984375,-16.1962890625
24.1630303,-64.9560546875,55.0732421875,-17.9052734375
24.1919589,-63.8818359375,53.1689453125,-18.5400390625
24.2256119,-63.9794921875,50.7275390625,-21.3720703125
24.2516377,-63.6865234375,48.0908203125,-23.4228515625
24.2835702,-63.7353515625,45.6982421875,-27.4267578125
24.314901,-63.9794921875,43.0615234375,-32.0654296875
24.3432767,-63.9794921875,39.9365234375,-36.8505859375
24.3798079,-64.0283203125,37.8369140625,-41.6845703125
24.4056895,-64.4677734375,35.8837890625,-45.7373046875
24.4334979,-64.7607421875,33.0029296875,-50.5224609375
24.4665175,-65.2001953125,31.5380859375,-53.8427734375
24.494406,-65.6396484375,29.3896484375,-57.0654296875
24.5252256,-66.4208984375,27.4853515625,-60.6787109375
24.5578499,-67.4462890625,24.2626953125,-64.1455078125
24.5853948,-67.9345703125,21.9189453125,-69.7607421875
24.6177667,-68.2763671875,20.3076171875,-74.6923828125
24.6489915,-68.3251953125,18.9892578125,-79.2822265625
24.6768492,-69.3994140625,23.8232421875,-83.0419921875
24.7088321,-69.8876953125,33.9794921875,-80.1123046875
24.7358968,-70.3271484375,42.6708984375,-63.2666015625
24.7653742,-70.8154296875,48.6279296875,-40.6103515625
24.7982256,-71.7431640625,53.6572265625,-23.2763671875
24.8285124,-71.4501953125,57.4169921875,-11.1669921875
24.8552856,-72.0361328125,59.5654296875,-4.7216796875
24.8901984,-72.0361328125,57.7099609375,0.2587890625
24.9174873,-69.6923828125,56.0498046875,-0.9619140625
24.950463,-68.4228515625,54.3408203125,-6.2841796875
24.9784751,-66.5185546875,53.5595703125,-11.8017578125
25.0071524,-64.4677734375,52.0947265625,-15.0244140625
25.0359485,-63.5888671875,49.8974609375,-16.5380859375
25.0700645,-62.9541015625,47.3583984375,-17.8076171875
25.0995485,-63.2958984375,44.4775390625,-19.6630859375
25.1321566,-62.9541015625,41.7919921875,-23.2763671875
25.1590521,-63.8330078125,39.2529296875,-27.6220703125
25.1889815,-63.9306640625,36.8115234375,-32.1142578125
25.2224245,-63.8818359375,33.4423828125,-36.7529296875
25.2495474,-64.6142578125,31.1962890625,-41.8798828125
25.2815807,-64.6142578125,28.4619140625,-46.5185546875
25.3097921,-64.8583984375,26.6064453125,-50.8154296875
25.3459421,-66.3720703125,23.8720703125,-53.0615234375
25.3658447,-66.8115234375,22.1630859375,-56.7236328125
25.4005721,-66.9580078125,19.0869140625,-60.3857421875
25.4287051,-67.9345703125,17.0361328125,-65.1708984375
25.4634103,-69.1552734375,14.4482421875,-70.7861328125
25.4910495,-69.0087890625,13.1787109375,-75.2294921875
25.5206908,-69.7900390625,13.3740234375,-78.5986328125
25.5529306,-70.2294921875,22.4072265625,-80.1611328125
25.5796951,-70.8154296875,32.2705078125,-70.9326171875
25.611754,-71.8896484375,38.7646484375,-50.7666015625
25.6424217,-72.2802734375,44.2822265625,-31.2353515625
25.6728208,-72.8662109375,47.7001953125,-18.8330078125
25.7053255,-72.9150390625,50.1904296875,-10.5322265625
25.7324312,-72.9638671875,49.8974609375,-7.4560546875
25.7608586,-72.0849609375,48.5791015625,-7.0654296875
25.7932257,-70.7666015625,47.7978515625,-11.6552734375
25.8220958,-69.4970703125,46.4306640625,-16.7822265625
25.8516504,-67.5439453125,45.4052734375,-21.2744140625
25.8855109,-66.2255859375,44.3798828125,-22.5439453125
25.9146069,-65.6884765625,42.6220703125,-24.2041015625
25.9419604,-65.3466796875,40.4248046875,-26.0107421875
25.97399,-65.3955078125,38.5693359375,-29.3798828125
26.0036417,-64.6630859375,35.6884765625,-32.9443359375
26.035552,-65.2490234375,33.2958984375,-36.2158203125
26.0647014,-65.2001953125,31.2451171875,-41.8310546875
26.0925718,-65.3955078125,29.0966796875,-46.0302734375
26.1268936,-65.7373046875,27.0947265625,-50.9130859375
26.1532878,-66.2255859375,25.9228515625,-54.6240234375
26.1858201,-66.2744140625,23.5302734375,-58.8232421875
26.216584,-67.4951171875,21.4306640625,-61.4111328125
26.244734,-67.4951171875,19.3798828125,-65.1708984375
26.2740918,-68.2275390625,17.0361328125,-69.6142578125
26.3107703,-68.8134765625,14.7412109375,-74.3994140625
26.3336208,-68.8623046875,13.7158203125,-79.9658203125
26.3673465,-69.4482421875,13.1298828125,-84.8486328125
26.3968701,-69.7412109375,21.1865234375,-86.8994140625
26.4235462,-70.2783203125,31.1474609375,-79.7705078125
26.4574397,-70.9619140625,39.4970703125,-60.5810546875
26.4871227,-70.9130859375,45.8935546875,-38.6572265625
26.5147065,-71.5478515625,50.5322265625,-22.7392578125
26.5467198,-72.4755859375,53.5595703125,-12.9736328125
26.5755494,-71.7431640625,55.1220703125,-8.2373046875
26.6027435,-71.5966796875,53.5595703125,-5.9912109375
26.6383367,-69.8876953125,51.7041015625,-8.2373046875
26.6678147,-68.0810546875,50.9716796875,-14.0478515625
26.7164303,-66.4697265625,50.2880859375,-19.2724609375
26.7370626,-64.5654296875,49.3115234375,-22.6416015625
26.7543293,-63.2470703125,46.8701171875,-22.9345703125
26.7890079,-62.6611328125,45.1123046875,-24.8388671875
26.8190283,-62.2705078125,42.2802734375,-27.3291015625
26.8479109,-62.2705078125,39.6435546875,-30.6494140625
26.880199,-62.3193359375,36.5185546875,-35.9716796875
26.909948,-62.5634765625,34.3212890625,-40.5126953125
26.936724,-63.0517578125,32.3681640625,-45.4931640625
26.96837,-63.1494140625,29.4384765625,-51.0595703125
26.9993834,-63.4912109375,27.2412109375,-54.7705078125
27.0319268,-63.6376953125,25.4345703125,-59.6533203125
27.0608404,-64.1748046875,23.4814453125,-62.5830078125
27.0908242,-64.9560546875,20.4541015625,-66.5869140625
27.120461,-65.9326171875,18.0615234375,-70.5419921875
27.1493928,-66.3720703125,15.1806640625,-75.1318359375
27.1762403,-67.0556640625,13.4228515625,-80.9912109375
27.2123351,-66.8603515625,11.6162109375,-86.1181640625
27.2403958,-67.7392578125,13.2763671875,-90.4638671875
27.272938,-68.2763671875,23.6279296875,-90.7080078125
27.3017066,-69.1064453125,33.7353515625,-78.1103515625
27.3299248,-69.2041015625,41.4013671875,-55.6005859375
27.3627633,-70.3759765625,46.9189453125,-34.6533203125
27.3922865,-70.4248046875,50.9716796875,-21.1767578125
27.419353,-70.7666015625,52.8759765625,-12.8759765625
27.4522565,-70.7666015625,53.9501953125,-8.9697265625
27.4824426,-70.0341796875,51.0205078125,-7.3095703125
27.5098596,-68.1298828125,49.5556640625,-11.8505859375
27.5410167,-66.4697265625,48.5302734375,-18.2958984375
27.5734819,-65.2001953125,47.4072265625,-22.4951171875
27.6056335,-63.6376953125,45.8447265625,-24.9365234375
27.6332529,-62.0263671875,43.1591796875,-25.3759765625
27.662055,-61.5380859375,39.7900390625,-28.0126953125
27.6958251,-62.0751953125,37.1044921875,-30.7958984375
27.7240123,-61.8310546875,34.4677734375,-35.5322265625
27.7509202,-61.8798828125,30.9521484375,-40.5615234375
27.784287,-61.8310546875,27.9248046875,-45.2978515625
27.8121338,-62.4169921875,25.5322265625,-50.2783203125
27.8407494,-62.4658203125,22.2119140625,-55.3076171875
27.8749683,-62.9541015625,20.0146484375,-59.9462890625
27.9032289,-63.1982421875,17.9638671875,-64.1943359375
27.9372127,-64.4677734375,15.1806640625,-68.1494140625
27.965098,-65.0048828125,12.2998046875,-71.0302734375
27.9930712,-65.7861328125,9.8095703125,-75.4248046875
28.0278835,-66.4208984375,6.5869140625,-80.2099609375
28.0559572,-66.9091796875,4.5361328125,-86.5087890625
28.0832097,-67.6416015625,2.3388671875,-91.9775390625
28.1168176,-69.1064453125,4.5361328125,-96.0791015625
28.1453533,-69.1064453125,15.6201171875,-96.4208984375
28.1777714,-70.1318359375,24.0673828125,-83.9208984375
28.2068645,-70.9130859375,31.5869140625,-59.0185546875
28.2371868,-71.1572265625,35.5908203125,-39.6337890625
28.2626712,-71.8896484375,39.2041015625,-28.4521484375
28.2985244,-72.0849609375,41.4013671875,-22.1533203125
28.3270535,-71.9384765625,40.3759765625,-18.4423828125
28.359518,-70.7666015625,38.8134765625,-20.0537109375
28.384222,-69.4970703125,37.4462890625,-25.2294921875
28.415786,-67.7880859375,36.5673828125,-30.6494140625
28.4477676,-66.1767578125,35.9326171875,-34.6533203125
28.4778697,-65.3466796875,33.8330078125,-35.5810546875
28.5092614,-63.9794921875,31.9775390625,-36.4111328125
28.5385232,-63.4423828125,29.3896484375,-38.0224609375
28.5690668,-64.0771484375,26.5087890625,-41.2451171875
28.6059592,-64.1259765625,23.6767578125,-45.6396484375
28.6275746,-64.0771484375,21.6259765625,-49.4482421875
28.6573773,-64.3212890625,19.4775390625,-54.3798828125
28.6912035,-64.4189453125,16.5478515625,-58.9697265625
28.7258356,-64.6142578125,14.9853515625,-62.7783203125
28.7465188,-64.9072265625,13.4716796875,-67.4169921875
28.7811403,-65.9326171875,11.5185546875,-70.4931640625
28.809434,-66.4697265625,8.7841796875,-73.6181640625
28.8366053,-66.3720703125,6.4892578125,-76.2548828125
28.8722717,-67.8857421875,4.3896484375,-81.3330078125
28.8990075,-68.6669921875,2.0458984375,-86.6064453125
28.9353163,-68.7646484375,1.1181640625,-91.7333984375
28.9578905,-68.9599609375,2.1923828125,-95.7373046875
28.9877035,-69.5947265625,11.5673828125,-97.7880859375
29.0217909,-69.9365234375,20.9423828125,-89.6826171875
29.0504964,-70.4248046875,29.2431640625,-68.1494140625
29.0798558,-70.9619140625,34.9560546875,-46.5185546875
29.1187932,-71.7431640625,38.7646484375,-32.3583984375
29.141589,-71.7919921875,41.5966796875,-24.5947265625
29.1838282,-71.8896484375,41.9873046875,-20.7373046875
29.2022969,-72.0361328125,39.9853515625,-19.9560546875
29.2318393,-70.0830078125,39.5947265625,-24.9365234375
29.2683685,-67.8369140625,38.0322265625,-29.4775390625
29.2923138,-66.0791015625,37.4462890625,-33.7255859375
29.3196906,-65.0537109375,35.9326171875,-35.4345703125
29.3577134,-63.5400390625,34.5166015625,-36.8505859375
29.3823187,-62.9052734375,32.2216796875,-38.6572265625
29.4114802,-63.1005859375,29.9755859375,-41.0009765625
29.450279,-62.7587890625,27.3876953125,-44.3212890625
29.4744741,-62.3193359375,25.0927734375,-48.2275390625
29.5025393,-62.2705078125,22.4560546875,-53.1591796875
29.5324042,-62.4169921875,20.1611328125,-57.7978515625
29.5635026,-62.1240234375,18.0126953125,-62.2900390625
29.5941795,-62.1728515625,16.3525390625,-67.0751953125
29.6248314,-63.1494140625,13.5205078125,-70.9814453125
29.6536123,-63.2958984375,11.9580078125,-73.5693359375
29.6837513,-64.0771484375,9.4677734375,-76.5966796875
29.711446,-64.4677734375,6.6845703125,-80.7470703125
29.76091,-65.3955078125,4.8779296875,-85.4345703125
29.7810916,-66.3232421875,3.8525390625,-90.9033203125
29.80329,-65.7861328125,2.4365234375,-96.3232421875
29.8546901,-66.8115234375,8.7353515625,-99.5458984375
29.8743007,-66.9091796875,19.3310546875,-95.5908203125
29.8940163,-67.4462890625,29.0966796875,-76.6455078125
29.9319074,-68.1787109375,35.3955078125,-52.3779296875
29.9557724,-69.1552734375,40.3271484375,-34.7509765625
29.9830872,-69.6435546875,44.6240234375,-23.6181640625
30.0227122,-69.5458984375,46.3818359375,-16.8798828125
30.0455806,-70.1318359375,45.9423828125,-13.1201171875
30.0734429,-68.2275390625,44.8681640625,-14.1455078125
30.1116726,-66.6162109375,44.4287109375,-18.6865234375
30.1336513,-64.7607421875,42.9638671875,-23.6669921875
30.1715941,-62.7099609375,42.3291015625,-25.9619140625
30.2072571,-62.1240234375,40.2783203125,-27.5732421875
30.2251227,-60.5126953125,38.3740234375,-29.0869140625
30.2690943,-59.5361328125,36.0791015625,-31.1376953125
30.2896454,-59.9755859375,33.6376953125,-33.9697265625
30.3160035,-60.0244140625,31.0986328125,-38.0224609375
30.3542185,-60.1708984375,28.5107421875,-43.3447265625
30.3779736,-59.5361328125,25.9228515625,-47.3974609375
30.4237377,-59.8779296875,22.7001953125,-52.5244140625
30.4397755,-60.2197265625,21.1865234375,-56.7724609375
30.4699205,-60.6591796875,19.3310546875,-61.8017578125
30.5019568,-61.4404296875,16.9873046875,-64.3896484375
30.527593,-61.7822265625,14.4970703125,-67.4169921875
30.5690464,-62.7099609375,11.7626953125,-71.2255859375
30.5910249,-63.1005859375,9.3701171875,-76.0595703125
30.6190992,-63.9794921875,7.0751953125,-81.3818359375
30.6567883,-64.8583984375,5.2197265625,-87.2900390625
30.6822853,-64.9560546875,6.4404296875,-91.8798828125
30.7095109,-65.6396484375,15.9619140625,-92.9541015625
30.7476171,-65.9814453125,26.2646484375,-83.1396484375
30.769618,-66.8603515625,33.2958984375,-60.2880859375
30.8078879,-67.0556640625,39.3994140625,-39.1943359375
30.8288849,-67.8369140625,43.2080078125,-25.0830078125
30.861349,-68.5693359375,45.9912109375,-17.4658203125
30.8905156,-68.8623046875,45.9423828125,-12.2900390625
30.9358936,-68.7646484375,44.2822265625,-11.5087890625
30.9510188,-66.9580078125,42.9638671875,-14.7314453125
30.9799693,-65.5419921875,41.6943359375,-19.8095703125
31.0285709,-63.1005859375,40.3271484375,-25.0830078125
31.0417762,-62.4658203125,39.0576171875,-27.3291015625
31.079471,-61.5380859375,36.7138671875,-28.5009765625
31.1026427,-60.2685546875,34.1259765625,-30.5029296875
31.1307844,-60.1220703125,31.8310546875,-32.7001953125
31.1595952,-60.9521484375,29.1455078125,-36.0205078125
31.1980546,-60.9521484375,26.4599609375,-39.9267578125
31.2229978,-60.5126953125,23.8232421875,-45.1513671875
31.2541944,-60.9033203125,20.6494140625,-49.6435546875
31.2826314,-61.5869140625,18.5009765625,-53.9892578125
31.3128903,-62.1240234375,16.9873046875,-58.5791015625
31.3440562,-62.7587890625,14.3505859375,-62.3388671875
31.3891065,-62.8564453125,12.0068359375,-64.6337890625
31.4200981,-64.3701171875,9.9560546875,-68.5888671875
31.4352798,-64.2236328125,6.6845703125,-71.8603515625
31.4620629,-65.0048828125,4.8291015625,-77.5732421875
31.5005393,-66.1279296875,2.8759765625,-82.3095703125
31.5245369,-67.0068359375,1.2158203125,-86.9970703125
31.5512619,-67.0556640625,7.5146484375,-90.0244140625
31.5889829,-68.3251953125,17.9638671875,-86.4111328125
31.6236087,-68.3251953125,25.8740234375,-68.9794921875
31.6430629,-69.2529296875,32.0751953125,-46.5673828125
31.6807225,-69.9853515625,35.5419921875,-30.7958984375
31.7058111,-70.3271484375,37.9833984375,-22.0068359375
31.7324879,-70.9130859375,38.6669921875,-17.6611328125
31.7672521,-71.1083984375,36.7138671875,-16.1474609375
31.7972829,-70.4248046875,36.2255859375,-19.1259765625
31.8276354,-68.2763671875,34.4189453125,-25.1806640625
31.8583366,-67.5439453125,33.8818359375,-30.6982421875
31.8851724,-66.0791015625,33.2470703125,-31.4794921875
31.9194198,-64.7119140625,31.1962890625,-32.7490234375
31.9512964,-64.1748046875,29.8291015625,-33.8232421875
31.9758839,-63.2958984375,26.9482421875,-35.8251953125
32.0079906,-63.7353515625,24.7998046875,-39.7314453125
32.0382718,-64.0771484375,23.3349609375,-42.4169921875
32.0650231,-63.9794921875,20.2587890625,-46.8115234375
32.1002171,-63.9794921875,18.2568359375,-52.1826171875
32.1273502,-64.4677734375,16.5966796875,-55.8447265625
32.1610812,-63.8818359375,14.7900390625,-60.4833984375
32.1879559,-65.1513671875,12.9345703125,-63.9501953125
32.218079,-65.4931640625,10.1513671875,-66.4892578125
32.2455656,-65.5419921875,8.3935546875,-69.7119140625
32.2964528,-65.8349609375,6.1474609375,-72.6904296875
32.3060758,-67.1044921875,4.0966796875,-77.8662109375
32.3410035,-67.4951171875,2.3876953125,-82.7978515625
32.3699148,-67.5927734375,0.7763671875,-87.5830078125
32.3961053,-68.0810546875,7.6611328125,-91.3427734375
32.4291578,-68.7158203125,18.5009765625,-88.2177734375
32.4575791,-69.1552734375,26.9970703125,-71.9580078125
32.4913954,-69.6923828125,33.9306640625,-49.0576171875
32.5200986,-70.2294921875,38.8623046875,-30.1611328125
32.5483321,-70.7177734375,42.3779296875,-19.0283203125
32.5835628,-70.8154296875,45.3076171875,-12.7783203125
32.6111948,-71.5966796875,43.6962890625,-9.7509765625
32.6383106,-71.0595703125,42.2314453125,-10.2880859375
32.671375,-69.5947265625,41.9873046875,-16.0986328125
32.6995779,-67.2509765625,40.5712890625,-21.0791015625
32.7290842,-66.2744140625,39.2529296875,-23.9111328125
32.7630956,-64.8583984375,38.2763671875,-24.8388671875
32.7910017,-63.7841796875,36.6650390625,-25.5712890625
32.8231428,-62.5634765625,33.5400390625,-27.6220703125
32.8507405,-62.7099609375,30.6103515625,-30.2099609375
32.8796154,-62.7587890625,28.9013671875,-33.3837890625
32.9141055,-62.0263671875,26.4599609375,-38.6572265625
32.9434997,-62.4169921875,24.1650390625,-44.0283203125
32.9721384,-62.2705078125,21.8701171875,-48.4228515625
33.0033442,-62.3193359375,20.2099609375,-52.4755859375
33.0342551,-63.1982421875,18.0126953125,-57.0166015625
33.0597895,-63.3935546875,15.9619140625,-59.8974609375
33.0942403,-63.6376953125,13.6181640625,-62.1923828125
33.1226607,-63.6376953125,11.0302734375,-65.9521484375
33.1520784,-64.6630859375,8.8818359375,-70.5419921875
33.1837541,-64.9560546875,6.9287109375,-75.5224609375
33.211245,-65.7373046875,5.3662109375,-81.0888671875
33.2443426,-66.3720703125,7.0263671875,-84.4091796875
33.2739171,-67.2021484375,16.8408203125,-85.6787109375
33.3037771,-67.5439453125,27.1923828125,-74.3994140625
33.3360866,-67.8369140625,34.9560546875,-51.8896484375
33.3646585,-68.8623046875,40.8642578125,-30.9423828125
33.395431,-69.1064453125,44.9169921875,-16.7822265625
33.4258268,-69.2529296875,47.8466796875,-7.9443359375
33.4540029,-69.5947265625,48.0908203125,-2.8662109375
33.4814765,-69.9853515625,46.5283203125,-0.0341796875
33.5147488,-69.3017578125,44.6728515625,-3.5009765625
33.5460535,-67.8369140625,44.2822265625,-9.2626953125
33.5774141,-66.6162109375,43.1591796875,-13.0224609375
33.6059433,-64.2724609375,41.4013671875,-14.9267578125
33.6338494,-62.9052734375,39.1552734375,-15.6591796875
33.6676293,-61.7822265625,37.4462890625,-17.3681640625
33.696528,-61.0498046875,34.7119140625,-20.1513671875
33.72844,-61.0986328125,31.3427734375,-22.9833984375
33.7656551,-61.4404296875,29.1943359375,-27.1826171875
33.7861232,-60.6591796875,25.9228515625,-32.6513671875
33.8140761,-61.1474609375,23.8232421875,-36.9970703125
33.8468046,-61.0009765625,21.0888671875,-42.0263671875
33.8776956,-61.6845703125,18.5009765625,-47.1044921875
33.9088952,-62.0751953125,16.3037109375,-50.4248046875
33.9487558,-62.4658203125,13.5205078125,-54.3798828125
33.9653309,-63.0517578125,10.1513671875,-57.2119140625
33.9993696,-63.8818359375,7.8564453125,-61.9482421875
34.0287853,-64.4189453125,5.5615234375,-66.1474609375
34.0612749,-64.8583984375,3.0712890625,-72.2998046875
34.0969912,-65.5419921875,2.1923828125,-76.5478515625
34.1178419,-66.3232421875,8.3935546875,-80.5029296875
34.1504977,-66.7138671875,19.5263671875,-77.4267578125
34.1855333,-67.1533203125,27.3388671875,-59.1162109375
34.2061971,-68.3740234375,32.2216796875,-37.1923828125
34.2390441,-68.6181640625,36.6162109375,-20.2490234375
34.2760509,-69.1552734375,39.9365234375,-9.7021484375
34.296936,-70.1318359375,40.9130859375,-4.3310546875
34.3318833,-70.1318359375,40.0830078125,-1.3525390625
34.3591126,-69.9365234375,37.4462890625,-3.5498046875
34.4018921,-69.3017578125,37.0068359375,-9.1650390625
34.4211833,-67.8857421875,35.8349609375,-14.2919921875
34.4490014,-66.4697265625,33.4423828125,-17.0263671875
34.4861637,-64.8095703125,31.5380859375,-18.5400390625
34.5120668,-63.7841796875,29.5849609375,-20.0048828125
34.5410137,-63.3935546875,27.3388671875,-21.4697265625
34.5775371,-62.5146484375,24.6044921875,-24.8876953125
34.6002098,-62.4658203125,21.2353515625,-29.1845703125
34.6364034,-63.0517578125,19.1845703125,-33.4814453125
34.6692703,-62.8076171875,16.7431640625,-38.3154296875
34.6902625,-63.1982421875,14.4970703125,-42.5146484375
34.7260272,-63.3935546875,11.9091796875,-46.6650390625
34.7526239,-63.9306640625,10.2490234375,-50.6689453125
34.7946907,-63.9794921875,8.4912109375,-53.5498046875
34.8132346,-64.8583984375,5.2685546875,-56.1376953125
34.8516092,-65.2490234375,2.5830078125,-59.7021484375
34.8734167,-66.9580078125,0.2880859375,-64.4873046875
34.9053843,-66.7138671875,-1.1767578125,-69.9560546875
34.9331671,-67.5439453125,-2.6416015625,-74.4482421875
34.9601583,-68.4716796875,0.6787109375,-77.8662109375
34.9997983,-68.6669921875,10.5908203125,-77.1337890625
35.0212444,-69.1064453125,20.2587890625,-65.0732421875
35.0752181,-69.4970703125,26.7529296875,-42.6123046875
35.1043714,-70.6201171875,31.2939453125,-23.8623046875
35.1128428,-71.2548828125,34.9560546875,-12.7294921875
35.1475478,-71.4990234375,36.9580078125,-7.1630859375
35.1740763,-71.8896484375,35.5908203125,-3.8427734375
35.2118599,-72.2314453125,34.2724609375,-4.6240234375
35.2374572,-71.3037109375,33.8330078125,-9.7998046875
35.2655287,-70.1318359375,32.6123046875,-15.5126953125
35.2936487,-68.5205078125,31.1962890625,-18.4423828125
35.3313158,-66.6162109375,30.0244140625,-19.1748046875
35.3550182,-65.9814453125,28.1689453125,-21.1279296875
35.394144,-64.3701171875,25.8251953125,-22.3974609375
35.4159345,-64.5654296875,23.3837890625,-25.1806640625
35.4454458,-64.4677734375,21.7724609375,-29.2822265625
35.4847248,-64.7119140625,19.2333984375,-33.8720703125
35.5046434,-64.0771484375,17.3779296875,-38.0224609375
35.5419036,-64.1748046875,14.9853515625,-43.2470703125
35.5694698,-64.6142578125,13.1298828125,-47.2509765625
35.5978716,-64.5654296875,11.7138671875,-51.5478515625
35.6276059,-64.8095703125,9.7607421875,-55.2099609375
35.6664926,-65.7373046875,7.1240234375,-57.8955078125
35.6864258,-66.1767578125,4.0966796875,-61.5576171875
35.715637,-66.2255859375,3.0712890625,-64.5849609375
35.7606438,-66.4208984375,0.0927734375,-70.9326171875
35.7925986,-67.2021484375,-1.2744140625,-77.0849609375
35.8095826,-67.0556640625,0.3857421875,-80.5029296875
35.8395173,-67.7392578125,11.0302734375,-82.1142578125
35.8764451,-68.2763671875,21.6259765625,-72.7880859375
35.9009097,-68.4228515625,28.8525390625,-49.3017578125
35.9292902,-68.8623046875,34.8583984375,-27.8662109375
35.9563099,-68.9599609375,39.1064453125,-14.0478515625
35.9931456,-69.8388671875,42.3291015625,-5.0146484375
36.0159795,-70.4736328125,43.3544921875,0.0634765625
36.051848,-70.2783203125,40.4248046875,2.1142578125
36.0779601,-70.5712890625,40.1318359375,-1.9384765625
36.1189529,-69.4482421875,38.8134765625,-7.7001953125
36.1406828,-67.8369140625,37.5927734375,-12.6806640625
36.1699654,-65.9814453125,36.3232421875,-14.3896484375
36.2069459,-64.5166015625,34.5654296875,-15.6103515625
36.2303919,-63.2958984375,31.7822265625,-17.4169921875
36.2652765,-62.1728515625,29.6826171875,-19.8583984375
36.2925326,-61.5869140625,27.4365234375,-23.2763671875
36.3200611,-60.9033203125,24.7021484375,-27.1826171875
36.3505783,-61.0009765625,21.9189453125,-32.4072265625
36.388335,-61.0498046875,19.9658203125,-37.0947265625
36.4112728,-60.8544921875,16.7919921875,-41.8798828125
36.4606449,-61.9775390625,15.2294921875,-45.8349609375
36.4809059,-61.8310546875,13.2763671875,-50.4736328125
36.5018688,-62.2216796875,11.3232421875,-54.2333984375
36.5387689,-62.4658203125,9.9560546875,-56.7724609375
36.5628861,-63.1005859375,5.8544921875,-60.6787109375
36.590766,-63.4912109375,3.2177734375,-65.6103515625
36.6275825,-64.6142578125,1.7529296875,-70.9326171875
36.6541181,-65.0537109375,0.1904296875,-76.9873046875
36.6827998,-65.2001953125,2.6806640625,-81.5283203125
36.7134468,-66.0791015625,13.9599609375,-81.3330078125
36.743892,-66.5673828125,23.8720703125,-69.0771484375
36.7794776,-66.7626953125,30.8544921875,-44.2724609375
36.8051776,-67.8857421875,36.4697265625,-24.4482421875
36.8330092,-68.2275390625,40.6201171875,-11.1669921875
36.8810261,-68.9599609375,43.5009765625,-2.7685546875
36.9022382,-69.1552734375,43.3544921875,1.5771484375
36.9226862,-69.4482421875,41.2548828125,3.0908203125
36.9738481,-68.8134765625,40.5224609375,-0.8642578125
36.9952598,-68.7646484375,40.2783203125,-6.0400390625
37.0131135,-66.3720703125,38.7646484375,-10.6787109375
37.0499644,-64.6142578125,36.2744140625,-12.1923828125
37.0753292,-63.1005859375,34.7607421875,-13.5595703125
37.1201028,-61.4404296875,32.6611328125,-15.2197265625
37.1368078,-60.5615234375,29.9755859375,-17.7587890625
37.168461,-60.4638671875,27.0458984375,-21.3232421875
37.1930798,-60.5126953125,24.5556640625,-25.7177734375
37.2452953,-60.4638671875,21.7724609375,-31.2353515625
37.2545522,-60.4638671875,19.6240234375,-35.9716796875
37.2874097,-60.3662109375,16.8896484375,-40.1708984375
37.3177216,-60.9521484375,14.7412109375,-44.4677734375
37.3435134,-61.0498046875,13.0810546875,-48.8623046875
37.3808849,-60.9033203125,10.9814453125,-52.6220703125
37.4062406,-62.3193359375,8.0517578125,-55.6982421875
37.4443335,-62.6611328125,5.8544921875,-59.1650390625
37.467859,-63.3935546875,3.0712890625,-63.4130859375
37.4972876,-64.2724609375,0.3857421875,-70.0048828125
37.5269055,-64.6630859375,-1.0302734375,-75.2294921875
37.5575779,-64.6630859375,-0.8837890625,-79.8681640625
37.5858958,-65.1025390625,8.5888671875,-81.8212890625
37.6150876,-65.8349609375,19.2333984375,-74.0087890625
37.6495382,-66.0791015625,26.6552734375,-51.9384765625
37.6764216,-66.3232421875,33.2470703125,-28.9892578125
37.7127454,-66.9091796875,36.4208984375,-13.9501953125
37.739595,-67.5927734375,39.8876953125,-5.7470703125
37.7674658,-68.7646484375,40.4248046875,-0.4736328125
37.800833,-68.9111328125,36.9580078125,1.3330078125
37.8270925,-68.6669921875,35.8349609375,-2.6708984375
37.8577171,-68.6669921875,34.9560546875,-8.4814453125
37.8905081,-66.6650390625,33.4912109375,-13.4619140625
37.9188872,-65.0537109375,31.9287109375,-15.3173828125
37.94741,-63.9794921875,29.9755859375,-16.0009765625
37.9790899,-62.1728515625,27.0947265625,-17.7099609375
38.0108404,-60.4638671875,24.3603515625,-20.5908203125
38.0428599,-60.8056640625,21.1376953125,-23.7158203125
38.0706449,-60.6103515625,18.8427734375,-28.6474609375
38.1003472,-60.6591796875,16.1083984375,-32.9931640625
38.1340212,-60.0732421875,13.2275390625,-37.6806640625
38.1616596,-60.4638671875,11.0791015625,-42.3193359375
38.1893312,-60.9033203125,8.8330078125,-46.8115234375
38.2225294,-61.1474609375,6.9287109375,-50.2783203125
38.2504992,-61.3916015625,4.7314453125,-54.1845703125
38.2809444,-61.6845703125,1.8505859375,-56.9189453125
38.3128256,-62.5634765625,-0.4931640625,-60.2392578125
38.3423921,-63.1982421875,-3.7158203125,-64.0478515625
38.3731541,-64.0771484375,-5.8642578125,-69.2236328125
38.4029023,-65.0048828125,-7.4755859375,-75.0830078125
38.4325118,-65.5419921875,-8.2568359375,-80.0146484375
38.4635707,-65.7373046875,-0.0537109375,-82.3095703125
38.4930839,-66.5185546875,10.3466796875,-77.9150390625
38.5204017,-66.6650390625,17.9150390625,-59.4091796875
38.5552834,-67.3974609375,23.7255859375,-36.8017578125
38.5824753,-67.8857421875,27.3388671875,-21.3720703125
38.6105066,-69.1552734375,30.1220703125,-12.4365234375
38.6441335,-69.6435546875,30.0732421875,-8.6279296875
38.6713746,-70.0341796875,28.9990234375,-7.2607421875
38.7063138,-70.2294921875,27.7783203125,-11.2158203125
38.735192,-69.9853515625,26.6552734375,-17.2216796875
38.7631968,-68.8134765625,25.5322265625,-21.2744140625
38.7943315,-67.0556640625,23.9208984375,-24.1552734375
38.8231062,-65.6396484375,22.6025390625,-24.3017578125
38.8533757,-64.5166015625,20.7470703125,-26.0595703125
38.8852979,-63.0029296875,18.3544921875,-28.4033203125
38.9244507,-62.5634765625,16.0107421875,-31.7724609375
38.9441925,-62.6123046875,13.5205078125,-35.3369140625
38.9743336,-62.8564453125,11.1767578125,-39.9755859375
39.0030441,-62.2705078125,8.8818359375,-44.1259765625
39.0381808,-62.6123046875,7.1728515625,-48.7158203125
39.0766409,-62.8076171875,4.9755859375,-52.5244140625
39.0935865,-63.1494140625,3.1689453125,-57.3095703125
39.1295037,-63.2470703125,1.3623046875,-59.8974609375
39.1664592,-63.9794921875,-0.8837890625,-62.9248046875
39.1854596,-64.8583984375,-2.7880859375,-66.6845703125
39.2163997,-65.1513671875,-5.2294921875,-70.2001953125
39.2452661,-65.8349609375,-7.0849609375,-75.7666015625
39.2807286,-66.5185546875,-8.9404296875,-81.1865234375
39.3179873,-67.1044921875,-6.8896484375,-85.1416015625
39.337749,-67.2998046875,3.0712890625,-86.9482421875
39.3652423,-67.8369140625,13.3740234375,-78.2080078125
39.407884,-67.7392578125,21.1376953125,-56.1865234375
39.4251024,-68.1298828125,26.3623046875,-33.7744140625
39.4663784,-68.8134765625,30.6103515625,-19.2724609375
39.4883114,-69.2529296875,33.7353515625,-11.0205078125
39.5266949,-69.5458984375,34.0283203125,-6.9189453125
39.5513017,-70.7177734375,31.4404296875,-6.1376953125
39.5782419,-70.9619140625,31.1962890625,-9.7998046875
39.6153904,-69.8876953125,30.0732421875,-16.0986328125
39.6383524,-68.8623046875,28.9990234375,-20.6396484375
39.6757901,-66.5673828125,28.2666015625,-22.3974609375
39.7069632,-65.7861328125,26.7041015625,-23.1298828125
39.7300752,-63.5888671875,23.8232421875,-25.2294921875
39.7668733,-61.9287109375,21.3330078125,-27.3779296875
39.7911013,-61.7333984375,18.7939453125,-31.0400390625
39.8308453,-62.2216796875,16.3525390625,-34.7998046875
39.8490425,-61.7333984375,14.3994140625,-39.3896484375
39.8926777,-61.3427734375,12.2998046875,-44.3212890625
39.913403,-61.0498046875,9.4189453125,-49.2529296875
39.943075,-61.3916015625,7.5146484375,-53.7939453125
39.9799586,-61.5380859375,5.3662109375,-57.1630859375
40.001587,-61.4892578125,3.5107421875,-61.3134765625
40.0383529,-62.1728515625,1.5087890625,-64.3408203125
40.0611262,-62.4169921875,-1.6650390625,-67.5146484375
40.0983776,-62.6611328125,-3.7646484375,-71.5673828125
40.1209269,-63.8330078125,-6.4990234375,-77.4267578125
40.1594082,-64.0283203125,-8.0126953125,-82.4560546875
40.1787305,-64.6142578125,-4.9365234375,-87.2412109375
40.2140163,-65.3466796875,5.4638671875,-88.6572265625
40.2426451,-65.5908203125,16.2060546875,-78.2568359375
40.2780716,-66.2255859375,23.6767578125,-52.9150390625
40.3006714,-67.5439453125,30.1220703125,-30.5029296875
40.3420294,-67.8857421875,34.6142578125,-15.4638671875
40.3657409,-68.3740234375,38.4716796875,-6.0400390625
40.4023362,-68.2275390625,39.0576171875,-1.1083984375
40.4215892,-69.1064453125,37.0556640625,1.7236328125
40.4599762,-69.1552734375,36.1767578125,-1.4501953125
40.4812525,-69.1552734375,34.6630859375,-6.5283203125
40.516801,-67.7880859375,34.2724609375,-11.9482421875
40.5448688,-65.6396484375,32.4658203125,-13.9990234375
40.5810606,-63.8818359375,30.0244140625,-15.1708984375
40.6056287,-62.6611328125,28.4619140625,-16.7333984375
40.6443672,-61.0498046875,24.7509765625,-19.0283203125
40.664803,-60.0244140625,23.0908203125,-22.2021484375
40.7000913,-59.8779296875,20.5029296875,-26.4990234375
40.7259345,-59.5849609375,18.3056640625,-31.5283203125
40.7629586,-59.9267578125,15.3759765625,-36.9482421875
40.7870721,-60.0732421875,13.2275390625,-41.0498046875
40.8164398,-59.8779296875,10.6396484375,-45.6396484375
40.8528288,-59.9267578125,8.8818359375,-49.3505859375
40.8768469,-60.1220703125,7.0751953125,-53.5986328125
40.9155131,-60.4638671875,4.5849609375,-56.3330078125
40.9368521,-61.0498046875,1.4111328125,-59.6044921875
40.9769072,-61.7333984375,-0.6396484375,-64.1455078125
40.9966083,-62.1728515625,-3.2763671875,-70.2978515625
41.0507821,-63.1005859375,-4.6923828125,-75.6689453125
41.0557207,-63.3447265625,-4.0087890625,-80.1611328125
41.0943432,-64.0771484375,5.7080078125,-82.2119140625
41.1171544,-64.1259765625,16.4990234375,-74.6923828125
41.1526063,-64.4677734375,24.5068359375,-51.4990234375
41.1803068,-65.6884765625,30.2685546875,-28.0126953125
41.2073451,-66.0302734375,34.8583984375,-12.2900390625
41.2444216,-66.4208984375,37.9833984375,-3.1103515625
41.2650781,-67.4462890625,38.4228515625,2.8466796875
41.3014974,-67.9345703125,35.4931640625,4.8974609375
41.3277316,-68.3251953125,34.8095703125,2.8466796875
41.3660127,-67.6904296875,33.2470703125,-2.7685546875
41.3878269,-66.2744140625,32.5146484375,-7.9931640625
41.4269493,-65.2490234375,30.9033203125,-9.7021484375
41.4494816,-63.3935546875,28.4130859375,-11.3623046875
41.4846405,-61.7333984375,25.6787109375,-12.2412109375
41.5121904,-60.7080078125,23.3837890625,-14.1943359375
41.5461443,-59.3896484375,20.7958984375,-17.9541015625
41.5674579,-59.2431640625,17.7197265625,-21.8115234375
41.6042828,-59.0966796875,16.3037109375,-26.7431640625
41.630011,-59.9267578125,12.8369140625,-31.2841796875
41.6674971,-59.2431640625,10.5419921875,-34.7998046875
41.6893217,-59.2431640625,8.4423828125,-39.0966796875
41.7273904,-59.4384765625,6.8798828125,-43.1005859375
41.74966,-59.7802734375,4.6826171875,-46.5673828125
41.7862098,-60.3173828125,2.2412109375,-49.4970703125
41.8077768,-60.9521484375,-0.9814453125,-52.7197265625
41.8417628,-61.1474609375,-3.3740234375,-56.4306640625
41.8774869,-62.8564453125,-5.2783203125,-62.0947265625
41.8997062,-62.7099609375,-7.0849609375,-67.4658203125
41.9345274,-63.9306640625,-6.4013671875,-70.3955078125
41.9623183,-64.3701171875,3.4130859375,-73.4228515625
42.0023863,-65.1025390625,13.1298828125,-66.9775390625
42.0244,-65.3466796875,20.5517578125,-46.4697265625
42.0614346,-65.9814453125,26.1669921875,-24.5947265625
42.0816463,-66.5185546875,29.9755859375,-9.9951171875
42.1283645,-67.0556640625,32.6611328125,-2.1337890625
42.1499472,-67.6416015625,32.6611328125,2.3583984375
42.1744488,-68.4228515625,31.1474609375,3.6767578125
42.2045111,-68.8623046875,30.3662109375,0.6494140625
42.2413042,-68.3251953125,29.8779296875,-4.6728515625
42.2601696,-67.5439453125,29.0966796875,-8.5791015625
42.3001417,-66.2744140625,28.0712890625,-11.1669921875
42.3200157,-64.5166015625,26.1669921875,-11.5087890625
42.3585404,-63.3447265625,24.1650390625,-12.6318359375
42.3828039,-61.5869140625,21.3818359375,-15.3662109375
42.4222009,-61.3427734375,19.9169921875,-19.0771484375
42.4453249,-60.8544921875,17.4267578125,-22.1044921875
42.4732957,-60.9521484375,14.9365234375,-26.7431640625
42.5120095,-61.0986328125,12.9833984375,-30.7470703125
42.5348943,-60.6591796875,11.3232421875,-34.9462890625
42.5721038,-61.2939453125,9.8583984375,-38.8037109375
42.5922794,-61.4404296875,8.2470703125,-42.2216796875
42.6287778,-61.0498046875,6.5380859375,-44.7607421875
42.6542885,-61.6845703125,4.7314453125,-47.1533203125
42.6916909,-62.1240234375,1.6552734375,-50.5712890625
42.7158695,-62.6123046875,-0.3955078125,-55.7470703125
42.7532629,-63.1982421875,-1.9091796875,-60.2880859375
42.7783077,-63.8330078125,-2.6416015625,-65.2685546875
42.8070434,-64.0283203125,3.5107421875,-68.9306640625
42.8425531,-64.8583984375,14.7412109375,-67.1728515625
42.8679407,-64.6630859375,23.3837890625,-51.6943359375
42.8966072,-65.4931640625,30.0732421875,-28.7939453125
42.9250019,-65.2978515625,35.3466796875,-10.0927734375
42.9579016,-65.7373046875,39.0576171875,2.1630859375
42.9862606,-66.4208984375,41.0595703125,9.1455078125
43.0232479,-67.0556640625,40.5224609375,12.5634765625
43.0460658,-67.0068359375,39.0087890625,12.0751953125
43.0837785,-67.6416015625,37.7880859375,8.2666015625
43.1083522,-66.8603515625,36.8115234375,2.6025390625
43.1371839,-65.6884765625,36.4697265625,-0.7177734375
43.173278,-64.0283203125,34.9560546875,-1.7919921875
43.198994,-62.4658203125,33.1982421875,-2.2314453125
43.2267952,-60.0244140625,29.7314453125,-3.8916015625
43.2567617,-59.3896484375,28.0224609375,-7.1630859375
43.2882209,-58.5107421875,25.4345703125,-11.2158203125
43.3173872,-57.8271484375,23.2373046875,-15.4638671875
43.3510221,-57.9736328125,20.8447265625,-19.7119140625
43.3790917,-57.8759765625,18.8427734375,-24.2041015625
43.409973,-58.1689453125,16.2060546875,-28.7939453125
43.44053,-58.2666015625,14.6923828125,-33.3837890625
43.4682931,-58.4619140625,12.6416015625,-36.8017578125
43.5015818,-58.5107421875,10.7373046875,-38.9501953125
43.5298594,-58.9013671875,8.0029296875,-42.7099609375
43.5583853,-59.3408203125,5.4638671875,-46.7626953125
43.5921257,-59.3896484375,3.5595703125,-52.0849609375
43.6205405,-60.3173828125,2.4365234375,-57.9931640625
43.6500036,-61.1474609375,2.3388671875,-61.8505859375
43.682657,-61.8310546875,11.5185546875,-64.4873046875
43.7117802,-62.5146484375,22.1630859375,-59.0185546875
43.7396072,-63.2470703125,31.2451171875,-38.3642578125
43.7722098,-63.3935546875,36.5185546875,-15.2197265625
43.7998145,-64.2724609375,41.6455078125,1.1865234375
43.8349041,-64.2236328125,45.4052734375,11.4892578125
43.8613491,-64.8583984375,45.9423828125,17.7392578125
43.8902855,-65.4931640625,45.2587890625,20.5712890625
43.9204991,-66.0791015625,43.5986328125,19.9853515625
43.9519108,-65.4931640625,41.9873046875,14.4677734375
43.9821,-65.0048828125,41.7431640625,9.2919921875
44.0136408,-63.3935546875,40.8154296875,5.5810546875
44.0419679,-62.3681640625,38.4716796875,4.7509765625
44.0720606,-60.7568359375,35.7373046875,2.9443359375
44.1035875,-58.6083984375,32.9052734375,0.0146484375
44.1338097,-57.5830078125,30.1708984375,-2.7685546875
44.1619189,-56.9482421875,28.3642578125,-6.8212890625
44.1943574,-56.3134765625,25.2392578125,-12.2900390625
44.2372571,-56.7041015625,22.9443359375,-17.3193359375
44.2559994,-56.1669921875,20.2587890625,-21.6162109375
44.2841649,-56.7041015625,18.0126953125,-26.0595703125
44.3269624,-56.4599609375,15.7666015625,-30.0634765625
44.3469639,-57.3388671875,13.8623046875,-33.7255859375
44.3840934,-57.2412109375,10.5419921875,-36.4111328125
44.4054126,-57.3876953125,7.8564453125,-40.9033203125
44.4348016,-58.1201171875,5.2685546875,-45.9814453125
44.4653877,-58.8037109375,3.1689453125,-50.7177734375
44.5070196,-59.5361328125,1.3134765625,-57.1142578125
44.5262583,-60.0732421875,4.6826171875,-61.0205078125
44.5711739,-60.8544921875,15.4736328125,-61.4111328125
44.5873014,-61.4892578125,24.8974609375,-50.2294921875
44.6245792,-61.8798828125,31.3916015625,-27.3779296875
44.6454156,-62.7099609375,36.2744140625,-7.4072265625
44.6954734,-63.0517578125,40.0830078125,5.7275390625
44.7072095,-63.4423828125,42.4755859375,12.9541015625
44.7571262,-63.9306640625,41.0107421875,17.1533203125
44.7681235,-65.2001953125,39.2529296875,18.4228515625
44.8057457,-65.3955078125,37.3486328125,13.4912109375
44.8270827,-65.4443359375,35.6884765625,7.5830078125
44.8570054,-65.0048828125,34.4677734375,3.5791015625
44.8981998,-63.3935546875,33.0029296875,1.5771484375
44.9184248,-62.0263671875,30.3173828125,0.3564453125
44.9631325,-60.0244140625,27.7783203125,-1.9384765625
44.9938579,-58.8037109375,25.2880859375,-4.7216796875
45.0085288,-57.5341796875,22.0654296875,-9.3115234375
45.0578973,-57.3388671875,20.0146484375,-14.0478515625
45.0872964,-57.5341796875,17.1826171875,-18.0517578125
45.1008341,-57.3876953125,14.0087890625,-22.6904296875
45.1384572,-57.7294921875,12.5439453125,-27.1826171875
45.1680576,-57.6318359375,10.3466796875,-31.4306640625
45.1911593,-57.7783203125,8.4423828125,-34.5556640625
45.2272962,-58.4130859375,6.5869140625,-37.8759765625
45.2499672,-59.2919921875,3.6572265625,-41.5380859375
45.2802793,-59.9267578125,1.1669921875,-45.9326171875
45.3168601,-60.4638671875,-0.6884765625,-51.2060546875
45.3386708,-61.4404296875,-3.0810546875,-56.4794921875
45.38644,-62.1240234375,-1.6650390625,-60.3369140625
45.4064972,-62.6611328125,6.8798828125,-62.5830078125
45.4421541,-63.5400390625,16.8896484375,-56.8701171875
45.4588869,-63.6865234375,23.7744140625,-36.9482421875
45.4957974,-64.3701171875,29.8779296875,-15.6591796875
45.5208242,-65.3466796875,33.0517578125,-1.4013671875
45.5536495,-65.3955078125,35.3955078125,6.5576171875
45.58247,-66.2255859375,34.9072265625,11.3427734375
45.6218108,-67.0068359375,33.1494140625,11.9287109375
45.6430196,-67.0068359375,31.8310546875,6.6552734375
45.6793925,-67.4951171875,31.6845703125,1.4794921875
45.699727,-66.5673828125,29.8291015625,-2.9638671875
45.735642,-65.9326171875,29.0478515625,-4.4287109375
45.7636393,-64.3701171875,26.8017578125,-5.5029296875
45.8030725,-62.7099609375,24.8974609375,-7.1142578125
45.8222153,-61.9775390625,22.5048828125,-9.9951171875
45.8573441,-60.7080078125,20.2099609375,-12.9736328125
45.8788783,-59.9755859375,17.7685546875,-16.6845703125
45.917381,-59.7802734375,15.8154296875,-22.0556640625
45.942927,-59.8779296875,13.4228515625,-25.9619140625
45.9788079,-59.2431640625,11.4697265625,-30.9423828125
46.0049538,-59.8291015625,9.3701171875,-34.1650390625
46.0449937,-59.5849609375,7.3681640625,-38.0224609375
46.064301,-60.0244140625,5.5615234375,-40.7080078125
46.1018572,-60.3173828125,3.1689453125,-43.3447265625
46.1240177,-61.0009765625,0.8740234375,-48.4228515625
46.1606307,-61.6845703125,-0.7861328125,-53.0615234375
46.1824528,-62.1240234375,-2.1533203125,-58.4814453125
46.2208475,-62.1240234375,-0.2978515625,-61.8505859375
46.2463115,-62.4169921875,9.4189453125,-64.4384765625
46.2832478,-63.0029296875,19.8193359375,-56.7724609375
46.3036705,-62.9052734375,27.2900390625,-35.7763671875
46.3409582,-63.4912109375,33.6865234375,-13.8037109375
46.3641531,-63.8818359375,37.8369140625,1.1865234375
46.40245,-64.7607421875,41.5478515625,10.0732421875
46.4253327,-65.3955078125,41.4501953125,15.7373046875
46.4622171,-66.1279296875,40.5224609375,18.1298828125
46.4823125,-65.7373046875,39.0087890625,15.2978515625
46.5199116,-66.5185546875,38.9111328125,10.1220703125
46.5460573,-66.2255859375,37.2509765625,5.8740234375
46.5840685,-64.9072265625,36.4697265625,3.6767578125
46.6056368,-63.3935546875,34.6630859375,2.6025390625
46.6423399,-62.2216796875,32.4658203125,1.1865234375
46.6686771,-60.0732421875,30.1708984375,-0.8642578125
46.7050531,-58.2666015625,27.2900390625,-4.4775390625
46.7275506,-57.5830078125,25.2392578125,-8.4326171875
46.7630762,-57.0947265625,22.8466796875,-12.6806640625
46.7855148,-56.4111328125,20.6494140625,-17.8076171875
46.8202138,-56.8994140625,18.4033203125,-21.7138671875
46.8481209,-56.4111328125,16.5478515625,-25.5712890625
46.8845446,-56.6552734375,15.1318359375,-29.7705078125
46.9093747,-56.8994140625,12.6416015625,-32.1630859375
46.9477627,-57.1923828125,10.2490234375,-35.2880859375
46.9685503,-57.0458984375,8.1982421875,-39.5361328125
47.0049054,-57.7294921875,5.9521484375,-44.3701171875
47.0263908,-58.6572265625,3.8037109375,-50.0830078125
47.0660419,-58.7060546875,4.7314453125,-54.2822265625
47.0913561,-59.3408203125,14.5458984375,-56.3818359375
47.1282901,-59.8291015625,24.9462890625,-51.3037109375
47.149841,-60.6591796875,33.3447265625,-31.6259765625
47.1868272,-60.7568359375,39.3994140625,-9.9462890625
47.2068103,-61.6845703125,43.5498046875,6.8505859375
47.2440119,-62.4169921875,46.8701171875,16.5185546875
47.2696985,-62.3681640625,48.6279296875,23.1591796875
47.3084919,-63.0517578125,46.1865234375,26.7236328125
47.3382977,-63.6376953125,44.2822265625,24.3310546875
47.3610695,-64.1748046875,43.7451171875,18.3251953125
47.3963393,-63.8818359375,43.0126953125,13.7841796875
47.4228152,-63.1982421875,41.2060546875,10.5126953125
47.4598311,-62.1240234375,39.1064453125,10.4638671875
47.4817347,-60.0244140625,36.0791015625,8.7060546875
47.5182122,-58.5107421875,33.0029296875,6.0205078125
47.5406539,-56.6064453125,30.7568359375,1.9189453125
47.5801145,-55.7275390625,27.6806640625,-2.4755859375
47.6030145,-55.5810546875,24.3603515625,-6.7236328125
47.6417859,-54.5068359375,21.3330078125,-11.7041015625
47.665064,-54.9462890625,19.3310546875,-15.8056640625
47.7043805,-54.7509765625,16.9873046875,-20.5419921875
47.7268518,-55.3857421875,14.8876953125,-25.1806640625
47.7639979,-55.0439453125,11.6650390625,-27.7197265625
47.7821632,-55.3857421875,9.2724609375,-30.4541015625
47.8228796,-55.7275390625,6.3427734375,-35.3857421875
47.8435866,-56.3623046875,4.1943359375,-40.6591796875
47.8784452,-56.7041015625,1.9970703125,-46.2744140625
47.9067796,-57.6806640625,0.9228515625,-49.3994140625
47.9333564,-58.3154296875,8.0517578125,-53.0126953125
47.9636139,-59.7314453125,18.5498046875,-50.9130859375
47.9942488,-59.3408203125,26.8505859375,-35.9228515625
48.032934,-60.3662109375,32.0263671875,-15.1220703125
48.0570048,-61.1962890625,36.2255859375,2.2607421875
48.0874646,-61.5380859375,38.8134765625,12.5634765625
48.1151387,-62.5146484375,39.8388671875,18.7158203125
48.1623185,-63.1494140625,37.2021484375,21.4990234375
48.1766676,-63.9794921875,36.2255859375,19.9365234375
48.2060073,-63.7841796875,34.5166015625,13.8818359375
48.2376104,-64.7607421875,33.0517578125,8.1689453125
48.2674649,-64.2236328125,32.3193359375,4.5068359375
48.2941919,-63.4912109375,30.0244140625,4.0673828125
48.3302128,-61.1474609375,27.6806640625,1.7724609375
48.3563567,-59.6826171875,25.5810546875,0.0634765625
48.3913764,-58.5107421875,23.1396484375,-3.2568359375
48.4183512,-57.2900390625,20.4541015625,-7.5537109375
48.4455312,-56.8505859375,17.6708984375,-12.0947265625
48.4791076,-55.9716796875,15.3271484375,-16.6357421875
48.5077888,-56.7529296875,13.4228515625,-21.7626953125
48.5371779,-56.8017578125,11.3232421875,-25.1806640625
48.5690196,-57.0458984375,9.9072265625,-28.5986328125
48.5983068,-57.3388671875,7.0751953125,-31.5283203125
48.6259218,-57.7783203125,4.5361328125,-34.7509765625
48.6623319,-59.0478515625,2.4853515625,-38.8525390625
48.6879273,-59.6337890625,0.1416015625,-43.9306640625
48.7158461,-59.7802734375,-1.4208984375,-48.8134765625
48.7584203,-60.9521484375,-0.7373046875,-52.7197265625
48.7774852,-60.9033203125,7.8564453125,-55.5029296875
48.8120311,-61.9775390625,18.8427734375,-51.5478515625
48.8401189,-62.2705078125,26.0693359375,-34.1650390625
48.8695547,-63.1982421875,31.0009765625,-13.1201171875
48.9003276,-63.1005859375,35.3955078125,2.6513671875
48.9284861,-63.7353515625,38.6669921875,11.1962890625
48.9564301,-64.7119140625,38.0322265625,16.2255859375
48.9922114,-65.0048828125,35.7373046875,18.4716796875
49.0200611,-65.2490234375,34.4677734375,13.7353515625
49.0456716,-66.2255859375,34.0771484375,7.9248046875
49.0803532,-65.6884765625,33.1982421875,1.7724609375
49.1098385,-65.4931640625,31.4892578125,0.0634765625
49.1434389,-64.2724609375,30.6591796875,-1.5478515625
49.1707225,-62.8076171875,28.4619140625,-2.6708984375
49.2007139,-61.1962890625,25.3857421875,-5.2099609375
49.2330258,-59.6826171875,22.9931640625,-8.4814453125
49.2601523,-57.9736328125,20.4052734375,-13.7060546875
49.2936832,-57.4853515625,18.5009765625,-18.4912109375
49.3235366,-57.8759765625,15.8642578125,-24.0576171875
49.3518047,-56.8994140625,13.6181640625,-28.0126953125
49.3984186,-57.5830078125,11.9580078125,-32.6025390625
49.412351,-57.6318359375,9.3701171875,-36.3623046875
49.4410952,-57.2900390625,7.8076171875,-39.1455078125
49.4880896,-57.3388671875,5.2685546875,-42.9541015625
49.503706,-58.5107421875,2.2900390625,-47.3486328125
49.5317713,-58.7548828125,0.2880859375,-52.1337890625
49.5761559,-59.4384765625,-1.7138671875,-57.8466796875
49.5937917,-59.8291015625,1.9970703125,-61.6552734375
49.6446551,-60.7080078125,13.6669921875,-63.5595703125
49.6649893,-60.8056640625,23.1884765625,-53.6474609375
49.6824972,-61.6357421875,30.5615234375,-31.3330078125
49.7249855,-61.4404296875,37.1533203125,-10.2880859375
49.7453628,-62.8564453125,41.3525390625,3.7744140625
49.7739718,-62.6611328125,44.1845703125,13.1005859375
49.8158337,-63.7841796875,44.1845703125,17.8369140625
49.8374283,-64.0283203125,42.3779296875,19.6923828125
49.8763959,-65.2490234375,40.5224609375,15.9814453125
49.8979558,-65.1513671875,39.6923828125,9.5849609375
49.9374112,-65.1025390625,38.5693359375,5.4833984375
49.9580731,-64.6142578125,37.1044921875,2.6025390625
49.9977074,-62.8564453125,35.5908203125,0.7958984375
50.0157781,-61.3427734375,33.4423828125,-1.5478515625
50.0573673,-59.4873046875,30.8056640625,-3.5009765625
50.0793665,-57.6318359375,27.1435546875,-7.6025390625
50.1152555,-56.3134765625,24.7509765625,-12.0458984375
50.1378217,-55.8740234375,22.3583984375,-17.2216796875
50.1739822,-55.4345703125,18.7939453125,-22.7392578125
50.1940377,-55.2880859375,16.8408203125,-26.8408203125
50.2384691,-55.0439453125,14.1552734375,-31.4794921875
50.2579119,-55.6787109375,12.2509765625,-35.6298828125
50.2934429,-55.8740234375,9.7607421875,-39.2919921875
50.3190107,-56.4111328125,7.1728515625,-43.4423828125
50.3573352,-57.2412109375,4.6337890625,-47.8857421875
50.3742679,-57.2412109375,1.5576171875,-53.2568359375
50.4183078,-58.0224609375,0.2392578125,-59.8974609375
50.4384276,-58.1689453125,2.6318359375,-63.7060546875
50.4741466,-58.8525390625,13.2763671875,-65.3662109375
50.499183,-59.7314453125,23.1396484375,-56.4306640625
50.5344739,-60.4150390625,30.7568359375,-34.8974609375
50.5589362,-61.0986328125,36.1279296875,-13.6083984375
50.591999,-61.8310546875,40.0341796875,0.7958984375
50.6210924,-61.7822265625,42.6708984375,9.6337890625
50.6743405,-62.4169921875,42.4755859375,13.9306640625
50.6939112,-63.0517578125,40.1318359375,15.9814453125
50.7047005,-63.8330078125,38.4228515625,12.5146484375
50.7497222,-64.1748046875,37.0556640625,5.6298828125
50.7711376,-63.8818359375,36.2255859375,-0.1806640625
50.8090075,-63.8818359375,34.0771484375,-2.4267578125
50.828217,-62.3193359375,31.1962890625,-3.9404296875
50.8660098,-60.9521484375,28.3154296875,-6.4794921875
50.8907924,-59.1455078125,25.7763671875,-9.2626953125
50.928516,-57.6806640625,22.8466796875,-13.3642578125
50.953373,-56.4111328125,19.5751953125,-17.7587890625
50.9895837,-56.0205078125,16.9384765625,-23.0322265625
51.0100478,-56.0693359375,14.1552734375,-28.0126953125
51.0501923,-55.8740234375,12.0556640625,-32.8955078125
51.071594,-55.5810546875,9.8095703125,-36.9970703125
51.1082969,-56.0205078125,7.5634765625,-40.6103515625
51.1339527,-56.2646484375,4.6826171875,-43.6865234375
51.170321,-56.6552734375,1.8017578125,-47.8369140625
51.1895189,-57.0947265625,-0.9326171875,-52.1337890625
51.2253713,-57.0458984375,-3.3251953125,-57.5537109375
51.2492075,-58.4130859375,-5.1806640625,-63.3154296875
51.2855149,-58.7548828125,-3.0322265625,-67.7587890625
51.3136663,-59.5849609375,7.9541015625,-69.7119140625
51.3503765,-60.9033203125,17.6220703125,-60.9716796875
51.3708859,-60.7568359375,24.7021484375,-40.0244140625
51.4073233,-61.4404296875,29.1943359375,-19.8095703125
51.4303753,-62.9052734375,32.2216796875,-6.2353515625
51.4673514,-62.8564453125,33.6376953125,0.2099609375
51.4927844,-63.5400390625,31.6357421875,3.1396484375
51.5290353,-64.6142578125,30.3662109375,2.8955078125
51.5589573,-64.8095703125,30.1708984375,-2.5244140625
51.6058154,-65.4443359375,28.6572265625,-8.0419921875
51.6157455,-65.7373046875,27.4853515625,-13.0712890625
51.6540821,-65.1513671875,25.9228515625,-14.7314453125
51.6733619,-64.4189453125,24.2138671875,-16.5380859375
51.7104822,-63.0517578125,21.4794921875,-18.9306640625
51.7356857,-61.1962890625,19.8193359375,-20.8349609375
51.7719444,-59.8779296875,16.2548828125,-24.8388671875
51.7970102,-59.1455078125,13.8623046875,-29.0380859375
51.8333034,-58.0712890625,11.9091796875,-33.8232421875
51.8553729,-57.9248046875,10.1513671875,-38.8525390625
51.8918621,-58.0712890625,7.7587890625,-43.4423828125
51.9155757,-58.7060546875,5.9521484375,-47.2021484375
51.9636085,-58.4619140625,3.7548828125,-50.6689453125
51.9951745,-58.2177734375,1.4111328125,-53.5986328125
52.0041002,-58.5595703125,-0.7861328125,-57.4560546875
52.0365,-58.9013671875,-3.7646484375,-62.2412109375
52.0646358,-59.8291015625,-4.9853515625,-67.9541015625
52.1008293,-60.6591796875,-6.0107421875,-72.7392578125
52.1282733,-60.7568359375,-0.1513671875,-76.6943359375
52.1650788,-61.0498046875,11.2744140625,-76.9873046875
52.1851995,-62.0751953125,21.1376953125,-63.0712890625
52.2210311,-62.4658203125,27.1923828125,-38.9990234375
52.2464283,-62.6611328125,31.4404296875,-19.9072265625
52.2944896,-63.3935546875,35.2001953125,-7.5048828125
52.3258361,-63.4423828125,37.7392578125,-1.6943359375
52.3376027,-64.4189453125,35.6884765625,1.7724609375
52.3736223,-64.5166015625,34.2724609375,0.6005859375
52.3984612,-64.6142578125,33.1005859375,-4.4775390625
52.4362344,-65.3955078125,32.2705078125,-10.0927734375
52.45994,-65.2978515625,31.4892578125,-14.3408203125
52.4970775,-64.9560546875,29.1943359375,-15.7568359375
52.5159831,-63.2958984375,26.7041015625,-17.6611328125
52.5521297,-61.2451171875,24.5068359375,-19.4677734375
52.5795713,-59.9755859375,21.9677734375,-22.6416015625
52.6213228,-58.2177734375,19.2333984375,-26.5966796875
52.6407283,-56.7529296875,16.3525390625,-31.9677734375
52.6780781,-56.8505859375,13.8623046875,-36.6064453125
52.6972183,-56.4599609375,10.8837890625,-42.2705078125
52.7332986,-56.2158203125,8.9306640625,-46.6650390625
52.7586301,-56.1181640625,6.8310546875,-50.4736328125
52.7963343,-56.4111328125,4.7802734375,-54.5751953125
52.8202513,-56.8017578125,1.7529296875,-57.4560546875
52.8586863,-56.7529296875,-0.7373046875,-60.8740234375
52.880246,-57.5341796875,-3.2275390625,-65.3662109375
52.9188024,-58.5595703125,-5.4736328125,-71.5673828125
52.9429185,-58.6083984375,-6.7431640625,-76.8408203125
52.9822231,-58.7548828125,-1.9091796875,-80.8447265625
53.0021117,-60.0244140625,10.2001953125,-81.7724609375
53.0403466,-60.9521484375,19.6728515625,-70.1025390625
53.0616066,-60.8544921875,26.8017578125,-45.2001953125
53.0987529,-61.7333984375,32.2705078125,-23.7646484375
53.1221366,-61.8310546875,36.0791015625,-10.9228515625
53.1601174,-63.0029296875,38.3251953125,-3.0615234375
53.1817859,-63.4912109375,37.4951171875,0.7470703125
53.2199413,-63.8818359375,35.8837890625,1.5283203125
53.2429701,-64.1259765625,34.4189453125,-3.4521484375
53.280792,-64.7119140625,33.4912109375,-8.7255859375
53.3045437,-64.9560546875,32.6123046875,-14.2919921875
53.3395546,-64.3212890625,30.6103515625,-16.1474609375
53.3613601,-64.0771484375,28.3154296875,-17.4658203125
53.3985429,-61.9287109375,25.1904296875,-19.1259765625
53.4235494,-60.6103515625,22.7490234375,-22.3974609375
53.4604297,-58.6572265625,19.9658203125,-26.1083984375
53.4834617,-57.3388671875,17.2802734375,-30.1611328125
53.5208589,-56.7041015625,14.3505859375,-36.1181640625
53.5466763,-55.8740234375,11.1279296875,-40.5615234375
53.5817701,-55.9228515625,9.3701171875,-45.3955078125
53.6072235,-55.9228515625,6.8310546875,-50.1318359375
53.6359537,-56.2158203125,4.0966796875,-53.6962890625
53.6719083,-55.9228515625,1.8505859375,-56.9677734375
53.6971117,-56.4599609375,-1.0791015625,-60.2880859375
53.7353224,-55.9716796875,-3.9111328125,-64.9755859375
53.755835,-57.0458984375,-6.7919921875,-70.4931640625
53.7871014,-57.1435546875,-8.3056640625,-75.8154296875
53.8171836,-58.2177734375,-6.5478515625,-80.4541015625
53.8457442,-58.6083984375,4.0966796875,-82.8955078125
53.8769369,-59.2919921875,14.2041015625,-75.9619140625
53.912986,-59.8291015625,21.8701171875,-53.6474609375
53.9349744,-60.9521484375,27.2900390625,-30.6982421875
53.9709595,-61.8310546875,30.2685546875,-16.7822265625
53.9960671,-62.5634765625,32.7099609375,-8.1884765625
54.028783,-62.9052734375,31.6357421875,-4.0380859375
54.0587306,-63.1494140625,29.9267578125,-3.5986328125
54.088627,-63.7841796875,28.7060546875,-7.6513671875
54.1166824,-64.5166015625,27.8759765625,-13.9990234375
54.1505797,-64.6630859375,26.8017578125,-17.4658203125
54.1778687,-65.1513671875,24.2626953125,-20.4931640625
54.208741,-64.1259765625,21.8701171875,-21.6162109375
54.2389991,-62.2216796875,19.1845703125,-23.3740234375
54.2672734,-61.0986328125,16.6943359375,-26.5966796875
54.3003332,-59.4873046875,13.9111328125,-29.2822265625
54.3280165,-58.2177734375,11.3232421875,-33.2373046875
54.3600902,-57.3388671875,8.1982421875,-37.6318359375
54.3893825,-57.4365234375,6.0009765625,-42.8076171875
54.4189522,-57.4853515625,4.0478515625,-47.2509765625
54.450674,-56.7529296875,2.1923828125,-50.9619140625
54.4807563,-57.2900390625,-0.3466796875,-55.0634765625
54.5120536,-57.6318359375,-2.8369140625,-57.8955078125
54.5558429,-57.5830078125,-5.2294921875,-60.5322265625
54.569208,-57.8271484375,-8.3056640625,-64.8291015625
54.5991085,-58.4619140625,-10.4052734375,-68.6865234375
54.6477146,-59.2431640625,-11.9677734375,-74.3505859375
54.6600204,-59.3408203125,-11.2841796875,-78.3544921875
54.6921452,-60.2197265625,-1.4697265625,-80.6005859375
54.7343911,-60.9521484375,9.0283203125,-76.8408203125
54.7510191,-61.1962890625,16.6943359375,-57.3095703125
54.7950631,-61.9287109375,22.4072265625,-34.8486328125
54.8175004,-62.5146484375,25.5322265625,-20.3466796875
54.8531279,-62.7587890625,27.8759765625,-10.8740234375
54.8734989,-64.0283203125,27.5341796875,-6.9189453125
54.9154387,-64.7607421875,25.8740234375,-6.2841796875
54.9371577,-65.1513671875,25.2392578125,-9.2138671875
54.9763974,-65.3955078125,24.5068359375,-15.8544921875
54.9967141,-66.5673828125,23.3349609375,-20.7861328125
55.0252084,-66.7138671875,22.5048828125,-22.8857421875
55.0727373,-65.9326171875,20.2099609375,-23.8134765625
55.093179,-65.0537109375,17.5244140625,-24.7900390625
55.1164074,-63.1494140625,15.4248046875,-27.1337890625
55.155327,-62.0751953125,12.5439453125,-30.4541015625
55.1756104,-60.7568359375,10.6884765625,-34.5556640625
55.2162428,-59.2431640625,8.6865234375,-38.3642578125
55.2360538,-58.3154296875,6.0009765625,-43.6865234375
55.2786533,-58.4130859375,4.2919921875,-47.6904296875
55.2949934,-57.9248046875,2.3876953125,-51.5478515625
55.3347438,-58.2177734375,0.2392578125,-55.2587890625
55.3560783,-58.2666015625,-1.5673828125,-58.2861328125
55.3972154,-58.5595703125,-4.2041015625,-61.4599609375
55.4191412,-58.8525390625,-6.6943359375,-65.0244140625
55.4556055,-58.6083984375,-8.8427734375,-69.9072265625
55.4757152,-59.2919921875,-9.8193359375,-75.1806640625
55.5198423,-59.4873046875,-9.6728515625,-79.6240234375
55.5374085,-59.9267578125,1.1181640625,-82.2119140625
55.5750123,-60.2685546875,11.7626953125,-77.6220703125
55.5953653,-60.6591796875,20.5029296875,-56.5283203125
55.6389365,-60.9033203125,25.6298828125,-33.0908203125
55.6581703,-61.9287109375,30.5126953125,-16.2451171875
55.6940508,-62.5146484375,33.4423828125,-5.4541015625
55.7168034,-63.3447265625,34.6142578125,0.1611328125
55.7593354,-63.4912109375,32.1728515625,1.7236328125
55.7799195,-63.3935546875,31.8310546875,0.6494140625
55.8167067,-64.2236328125,30.9521484375,-5.3076171875
55.8383316,-64.2724609375,29.8779296875,-9.6533203125
55.8756721,-64.1748046875,28.4130859375,-11.8505859375
55.8969869,-64.4677734375,27.0458984375,-13.3642578125
55.9366538,-63.1982421875,24.0673828125,-14.4873046875
55.9582391,-61.8798828125,21.3818359375,-16.2451171875
55.9953508,-59.9755859375,19.4287109375,-19.7607421875
56.0208584,-58.2666015625,16.3037109375,-23.3740234375
56.0589533,-57.3876953125,14.7412109375,-28.1103515625
56.0792992,-56.2158203125,11.9091796875,-32.3583984375
56.1188238,-55.8740234375,8.5888671875,-37.3388671875
56.139164,-55.9716796875,8.2470703125,-41.6357421875
56.1744901,-55.3857421875,5.2685546875,-44.2236328125
56.2010519,-55.6298828125,3.6083984375,-48.1298828125
56.2373993,-56.0693359375,0.5322265625,-50.8154296875
56.262508,-55.7763671875,-1.7138671875,-54.9169921875
56.3097636,-55.8740234375,-4.9365234375,-59.6044921875
56.3310586,-56.2158203125,-5.9619140625,-65.4638671875
56.3470676,-57.0458984375,-6.6455078125,-70.3466796875
56.3875098,-57.6806640625,1.1669921875,-73.8134765625
56.4123674,-58.1689453125,11.5185546875,-72.2998046875
56.4516856,-59.0478515625,20.6982421875,-55.7958984375
56.4717216,-59.2431640625,27.0458984375,-31.6748046875
56.5069524,-60.1708984375,31.6845703125,-13.2177734375
56.5344207,-60.4638671875,34.9560546875,-1.0107421875
56.5699522,-61.0498046875,36.5185546875,4.8486328125
56.591858,-61.3916015625,35.5908203125,9.3896484375
56.638383,-62.2705078125,34.0771484375,8.4619140625
56.6677188,-62.5634765625,32.6611328125,3.2373046875
56.6846204,-62.0263671875,31.6357421875,-2.0361328125
56.7198269,-63.5400390625,30.8544921875,-4.9658203125
56.7414793,-63.4423828125,28.2177734375,-6.5283203125
56.7924797,-62.7099609375,26.3623046875,-8.3349609375
56.8126224,-61.0498046875,24.5556640625,-9.8974609375
56.8547875,-59.1455078125,20.8447265625,-12.5830078125
56.8626866,-58.0712890625,17.8662109375,-16.8310546875
56.9012094,-56.5576171875,15.3759765625,-20.9326171875
56.9227379,-54.8974609375,12.5927734375,-26.1083984375
56.9618379,-54.0185546875,10.1513671875,-30.4541015625
56.9814008,-54.2626953125,8.1494140625,-35.0927734375
57.0173503,-54.2626953125,6.1474609375,-39.0966796875
57.0452382,-54.1650390625,3.8525390625,-41.3427734375
57.0829389,-54.7021484375,1.0205078125,-44.6630859375
57.1043501,-54.6044921875,-2.3486328125,-49.1552734375
57.1404235,-54.4580078125,-4.3994140625,-53.3056640625
57.1621366,-55.3369140625,-6.3525390625,-58.8232421875
57.2005546,-55.1416015625,-8.3056640625,-64.2431640625
57.2297687,-56.1669921875,-4.2041015625,-67.8564453125
57.2664237,-56.5576171875,6.8798828125,-69.1259765625
57.2855532,-57.1435546875,15.5712890625,-58.5791015625
57.3217798,-58.0224609375,22.3095703125,-36.5087890625
57.3479821,-58.4619140625,27.1435546875,-15.7568359375
57.3839444,-58.9013671875,29.5361328125,-2.9150390625
57.4054608,-59.3408203125,32.1728515625,4.6044921875
57.4471452,-59.7802734375,30.6103515625,9.3408203125
57.4675035,-60.9521484375,28.3642578125,9.4873046875
57.5053961,-61.4892578125,27.8271484375,4.3603515625
57.5256247,-61.6845703125,26.2158203125,-1.0595703125
57.5643648,-62.2705078125,25.5810546875,-4.9658203125
57.5871377,-61.9775390625,23.1396484375,-6.3818359375
57.6252393,-61.9775390625,21.3330078125,-7.6513671875
57.645677,-60.9033203125,18.6962890625,-8.7744140625
57.6835146,-59.4873046875,16.4013671875,-11.8505859375
57.7085471,-57.3388671875,12.9345703125,-14.9755859375
57.7444477,-56.8017578125,10.5419921875,-19.7119140625
57.769318,-54.9951171875,8.5888671875,-24.3017578125
57.8067258,-54.5556640625,5.8056640625,-28.5009765625
57.8268319,-54.7021484375,3.6572265625,-32.6025390625
57.863127,-54.4580078125,1.9970703125,-36.4599609375
57.8876069,-54.4580078125,-0.2490234375,-39.1943359375
57.9270961,-54.1162109375,-3.7646484375,-42.3193359375
57.9473048,-55.2880859375,-5.0830078125,-45.5419921875
57.9887449,-55.1904296875,-8.4033203125,-49.3505859375
58.0101172,-55.1416015625,-9.5751953125,-54.9658203125
58.0473912,-56.3134765625,-11.5283203125,-59.8486328125
58.0736761,-56.5576171875,-8.4033203125,-62.9248046875
58.1122269,-57.5341796875,1.6552734375,-64.2919921875
58.130746,-57.4365234375,11.5673828125,-56.7724609375
58.1803291,-57.9248046875,17.7197265625,-36.8505859375
58.2004552,-58.8525390625,21.9189453125,-16.1474609375
58.2181987,-59.5361328125,25.2880859375,-2.6220703125
58.253884,-59.8291015625,27.0458984375,4.4580078125
58.2805768,-60.8544921875,25.7763671875,8.6083984375
58.3186996,-61.2939453125,24.6533203125,8.4130859375
58.3531842,-62.0751953125,24.1162109375,3.2373046875
58.3701865,-62.4658203125,22.8955078125,-1.9873046875
58.4105285,-62.5146484375,22.1142578125,-6.0400390625
58.432857,-63.0029296875,20.3564453125,-7.9931640625
58.4703479,-63.1005859375,18.2568359375,-8.6767578125
58.4895488,-62.6611328125,16.5478515625,-9.9951171875
58.5299115,-60.8056640625,13.9111328125,-12.9248046875
58.552408,-59.3408203125,10.9326171875,-16.6845703125
58.5891896,-58.2177734375,9.3212890625,-20.3955078125
58.6115665,-57.5341796875,6.9287109375,-25.1806640625
58.6496343,-56.6064453125,4.6826171875,-29.4775390625
58.674205,-55.6298828125,2.5830078125,-33.9697265625
58.7150762,-56.0693359375,0.8740234375,-37.7783203125
58.7295184,-55.6787109375,-0.4443359375,-40.4638671875
58.7676855,-56.3134765625,-3.2763671875,-43.2958984375
58.7946567,-56.4599609375,-5.4736328125,-46.1767578125
58.8213873,-55.8251953125,-7.5732421875,-50.5712890625
58.8587065,-56.1181640625,-9.4287109375,-55.7958984375
58.8827734,-56.9970703125,-10.2587890625,-60.7275390625
58.9196207,-57.6806640625,-7.6220703125,-64.9755859375
58.9423731,-57.9248046875,3.4130859375,-66.8310546875
58.9788906,-58.9013671875,12.8857421875,-59.0673828125
59.0105741,-58.9501953125,20.6005859375,-36.8505859375
59.0339022,-59.4384765625,26.0693359375,-15.9033203125
59.0703752,-59.8291015625,29.4384765625,-0.9619140625
59.0977162,-60.6103515625,32.3193359375,8.6083984375
59.1233867,-60.7080078125,31.7333984375,13.3935546875
59.1524847,-60.7080078125,30.6103515625,14.2724609375
59.189439,-61.9287109375,29.2919921875,10.3173828125
59.2141968,-62.2705078125,29.0478515625,5.2880859375
59.247881,-62.6123046875,27.7294921875,-0.2294921875
59.2748011,-62.7099609375,25.8251953125,-2.0849609375
59.3048965,-62.5634765625,24.1650390625,-3.5009765625
59.3428697,-61.9287109375,21.5771484375,-5.2587890625
59.364697,-60.0244140625,19.0869140625,-7.1630859375
59.4019413,-58.5595703125,16.1572265625,-10.9228515625
59.4253479,-56.3623046875,13.4716796875,-15.4150390625
59.4627108,-54.8974609375,11.6162109375,-19.9072265625
59.4841815,-53.6279296875,8.9794921875,-24.8876953125
59.5217813,-53.6279296875,6.6845703125,-29.6728515625
59.5642741,-53.0908203125,5.3173828125,-33.7255859375
59.5791946,-53.3349609375,2.8271484375,-37.1923828125
59.6060373,-52.9931640625,0.0927734375,-40.3173828125
59.6422815,-53.3837890625,-1.9580078125,-43.2958984375
59.66937,-53.6279296875,-4.8388671875,-47.2998046875
59.7165557,-53.6279296875,-7.1337890625,-53.7939453125
59.7323165,-54.2138671875,-8.5986328125,-58.8232421875
59.7604721,-54.7998046875,-7.2802734375,-63.8037109375
59.8053569,-54.6533203125,3.1689453125,-65.8056640625
59.8153626,-55.2392578125,13.3251953125,-61.1669921875
59.8654873,-56.1669921875,21.6259765625,-40.5615234375
59.8871094,-56.7041015625,26.8017578125,-17.6611328125
59.9334049,-57.3388671875,31.9287109375,-0.1806640625
59.9384205,-58.4619140625,34.8095703125,9.6337890625
59.9852515,-57.7783203125,36.1279296875,16.1279296875
59.9992486,-58.1201171875,33.2958984375,18.8623046875
60.0458793,-58.8037109375,32.2216796875,17.0556640625
60.0667208,-59.3408203125,31.1962890625,11.2939453125
60.1026399,-60.1220703125,29.5849609375,6.1669921875
60.1231108,-60.4638671875,27.6806640625,2.7978515625
60.1663824,-60.6103515625,26.0693359375,1.4306640625
60.1807932,-60.3662109375,24.5068359375,-0.3271484375
60.228293,-58.8525390625,20.7958984375,-2.7685546875
60.2433307,-57.4365234375,18.1591796875,-6.0400390625
60.2851118,-55.2392578125,15.2294921875,-10.8740234375
60.306751,-53.6767578125,12.4462890625,-15.9033203125
60.3424152,-52.3583984375,9.0283203125,-20.5419921875
60.363928,-51.2841796875,7.7099609375,-25.6201171875
60.4052845,-51.4306640625,5.6591796875,-30.8447265625
60.426762,-50.5517578125,2.8271484375,-34.5068359375
60.4655318,-50.7470703125,1.0205078125,-37.2412109375
60.4834097,-51.1376953125,-2.5927734375,-40.8544921875
60.5281396,-50.9912109375,-4.8876953125,-45.1513671875
60.5476241,-51.1865234375,-7.1337890625,-50.4248046875
60.590355,-51.4794921875,-9.0380859375,-55.9423828125
60.6022598,-51.7724609375,-9.1845703125,-61.2158203125
60.645587,-52.5537109375,-0.7373046875,-64.5361328125
60.665823,-53.1884765625,9.7607421875,-62.7294921875
60.7072468,-53.6279296875,17.7197265625,-45.9814453125
60.7277049,-54.4580078125,23.2861328125,-22.2509765625
60.7633372,-54.7998046875,28.3642578125,-3.4033203125
60.7824739,-55.0927734375,31.2451171875,7.8759765625
60.8276734,-56.3134765625,32.5634765625,13.6865234375
60.8479611,-56.6552734375,29.8779296875,16.8603515625
60.8827915,-57.2412109375,28.1689453125,15.6884765625
60.9045445,-58.0712890625,27.3388671875,9.5849609375
60.9475821,-58.5595703125,25.2392578125,3.4814453125
60.9680686,-58.8525390625,24.1650390625,0.0634765625
61.0065357,-58.9013671875,21.7724609375,-1.7431640625
61.0265828,-58.8525390625,19.5263671875,-2.5244140625
61.0651636,-58.4130859375,16.4501953125,-5.3076171875
61.0850095,-56.3134765625,13.5205078125,-7.6025390625
61.1281065,-54.7021484375,10.7373046875,-12.3388671875
61.1472147,-53.6279296875,8.1494140625,-17.3681640625
61.1832761,-51.7724609375,5.0732421875,-22.2509765625
61.2040622,-50.5029296875,2.9248046875,-27.3291015625
61.2514851,-50.1123046875,0.2392578125,-31.7236328125
61.2714971,-50.6494140625,-1.5673828125,-36.4111328125
61.3109352,-50.4052734375,-3.7158203125,-39.5361328125
61.3302691,-50.5029296875,-7.0849609375,-42.3681640625
61.3672153,-50.7470703125,-9.8193359375,-46.0791015625
61.3877524,-50.7958984375,-12.6513671875,-51.4501953125
61.4265812,-51.5283203125,-14.5068359375,-56.7236328125
61.4457744,-51.6259765625,-15.9228515625,-62.3876953125
61.4862798,-52.4072265625,-10.8447265625,-65.4150390625
61.5078219,-52.9931640625,0.1416015625,-66.4892578125
61.5440825,-53.4814453125,9.1748046875,-56.3330078125
61.5680576,-54.8974609375,15.0341796875,-33.8232421875
61.6101576,-54.9462890625,19.4775390625,-13.5595703125
61.6291857,-55.3857421875,22.4072265625,-1.5478515625
61.6649774,-56.0693359375,23.3349609375,5.5322265625
61.6902367,-57.2412109375,21.2841796875,8.8037109375
61.7274856,-57.3876953125,20.1123046875,7.6806640625
61.7493037,-58.0224609375,19.8681640625,1.7236328125
61.7875051,-58.9501953125,18.1591796875,-4.1845703125
61.8111667,-59.4384765625,17.0361328125,-8.0908203125
61.8594066,-59.9267578125,15.3271484375,-9.6533203125
