PPG_subj_06,52,M,N,Non-diabetic,120,34.9265,Forehead,0.185546875,0.185546875,0.185546875,0.185546875,0.185546875,0.185546875,92.3681640625,57.6025390625,56.6259765625,54.4775390625,53.2080078125,51.5966796875,49.7412109375,48.2763671875,46.2744140625,45.5419921875,44.2236328125,42.6611328125,41.5869140625,40.2685546875,40.5615234375,45.8349609375,50.6201171875,53.4521484375,55.3564453125,57.1142578125,58.4814453125,59.7998046875,60.0927734375,59.7021484375,58.9697265625,59.0185546875,58.8720703125,57.9931640625,56.8701171875,55.7958984375,53.8427734375,52.6220703125,51.5966796875,50.4736328125,49.1552734375,48.1787109375,46.5673828125,45.5419921875,44.5654296875,43.4423828125,46.5185546875,51.1572265625,54.1845703125,57.5048828125,58.9697265625,60.7763671875,62.8271484375,63.1689453125,63.7548828125,63.3154296875,63.8037109375,63.0712890625,63.0712890625,62.0947265625,60.7275390625,59.3115234375,58.2861328125,56.5771484375,55.4541015625,54.4775390625,53.3056640625,52.2802734375,50.4736328125,48.8623046875,47.7880859375,47.2998046875,49.6923828125,54.9169921875,57.5048828125,59.4091796875,61.9970703125,64.4873046875,66.2939453125,66.6357421875,66.8798828125,65.9033203125,66.2939453125,65.9521484375,66.0009765625,64.1943359375,63.0224609375,61.3134765625,60.4345703125,58.3837890625,56.9189453125,55.6982421875,54.5263671875,53.1591796875,51.8408203125,50.6201171875,49.3994140625,48.1298828125,47.0556640625,48.2763671875,53.5009765625,57.7978515625,60.1416015625,62.4365234375,64.9755859375,66.5869140625,67.7587890625,67.6123046875,67.6611328125,67.4658203125,67.1728515625,66.5869140625,65.1708984375,63.9013671875,62.3876953125,60.7763671875,59.1162109375,57.3583984375,55.7958984375,53.5986328125,52.6220703125,50.7666015625,48.7158203125,48.3251953125,46.4208984375,44.5166015625,43.9306640625,43.0517578125,45.8837890625,51.7431640625,55.6005859375,58.6279296875,60.4833984375,62.4853515625,63.7060546875,64.6337890625,64.3408203125,63.8037109375,63.1201171875,62.9248046875,62.6318359375,61.0205078125,60.4345703125,58.6279296875,56.8701171875,54.3798828125,53.4521484375,52.6708984375,51.2060546875,49.6435546875,47.7880859375,46.7626953125,45.4443359375,44.7607421875,43.9306640625,43.4423828125,43.6376953125,49.0087890625,53.6962890625,56.5771484375,59.0185546875,60.3857421875,62.4365234375,62.3388671875,62.9736328125,62.3388671875,62.6318359375,62.6806640625,60.9228515625,60.7275390625,59.6044921875,58.5302734375,56.7236328125,55.3076171875,53.6474609375,52.1337890625,50.8642578125,49.8388671875,48.8623046875,47.4951171875,46.0302734375,44.7119140625,43.4423828125,42.7099609375,43.1982421875,47.8369140625,52.7197265625,55.8447265625,58.4326171875,60.6298828125,61.7041015625,63.3642578125,64.0966796875,64.1943359375,63.4619140625,62.7783203125,62.8271484375,61.6064453125,59.9462890625,58.8232421875,57.6025390625,55.6005859375,54.0869140625,52.7197265625,51.7431640625,49.9853515625,49.1552734375,47.2509765625,45.9326171875,44.5654296875,43.7353515625,42.8564453125,42.6123046875,48.6669921875,53.5009765625,56.3818359375,58.7255859375,60.4833984375,62.8271484375,63.3642578125,63.6572265625,63.6572265625,62.9248046875,62.9248046875,62.3388671875,61.1669921875,60.6787109375,58.6279296875,56.7236328125,54.7705078125,53.5498046875,52.0361328125,51.2060546875,49.8388671875,48.3251953125,46.2744140625,45.2490234375,43.9306640625,43.4912109375,41.7333984375,43.8818359375,50.3759765625,53.9404296875,57.1142578125,59.7998046875,61.3134765625,62.4365234375,63.6083984375,63.5107421875,63.0224609375,63.1689453125,62.2900390625,61.6064453125,61.0205078125,59.8486328125,58.6279296875,56.8212890625,55.6982421875,53.9892578125,52.7197265625,51.1572265625,50.1318359375,49.2529296875,48.1298828125,46.8603515625,45.8349609375,44.9072265625,48.3251953125,53.9404296875,57.0166015625,59.7998046875,61.7041015625,63.1689453125,64.0478515625,63.9013671875,63.8037109375,63.7060546875,63.5595703125,62.6806640625,62.4365234375,61.5087890625,60.1416015625,58.3349609375,57.1630859375,55.6005859375,54.0869140625,53.2568359375,52.0849609375,50.9130859375,49.1552734375,48.1298828125,46.5185546875,46.7138671875,48.3740234375,54.0380859375,57.9443359375,59.5556640625,62.5830078125,63.7548828125,65.4638671875,67.2216796875,67.1240234375,66.7822265625,67.3193359375,67.2216796875,66.2451171875,65.6591796875,64.2431640625,63.8037109375,62.4365234375,60.8740234375,59.3115234375,57.7001953125,57.3095703125,55.9423828125,54.7705078125,53.0126953125,51.6455078125,50.8154296875,50.5712890625,55.5029296875,59.8486328125,61.8505859375,64.1455078125,66.2451171875,68.7353515625,70.2978515625,70.2490234375,70.0537109375,69.4677734375,69.5654296875,69.9072265625,68.3447265625,67.2705078125,66.0009765625,64.0966796875,63.5595703125,61.4599609375,60.3857421875,58.5791015625,57.3095703125,55.8935546875,54.7216796875,53.2568359375,52.4267578125,50.7177734375,52.7197265625,57.8466796875,61.2158203125,63.9013671875,66.0009765625,67.2216796875,69.4189453125,69.9072265625,70.9814453125,70.4931640625,70.7861328125,70.3955078125,69.1748046875,68.8330078125,68.2958984375,66.5869140625,65.6591796875,63.8525390625,62.5341796875,61.5576171875,60.6298828125,59.4580078125,58.1884765625,56.5283203125,55.4052734375,53.8427734375,53.2568359375,54.0869140625,58.6767578125,62.1435546875,64.5361328125,67.2705078125,68.8818359375,70.6884765625,71.9091796875,72.2021484375,72.3486328125,71.9091796875,71.8115234375,70.8349609375,70.1513671875,68.9794921875,67.7587890625,66.2451171875,64.5849609375,62.9736328125,61.6064453125,60.6787109375,59.2138671875,57.6025390625,56.1865234375,54.4775390625,53.6962890625,52.8662109375,52.1337890625,55.6982421875,60.0927734375,63.2177734375,65.5126953125,67.5634765625,69.9560546875,71.9091796875,72.2998046875,72.6904296875,72.1533203125,72.2509765625,71.6650390625,71.0302734375,69.9560546875,68.5888671875,67.3193359375,65.7080078125,63.5595703125,61.7041015625,60.5810546875,58.5791015625,57.3583984375,55.9912109375,53.7451171875,52.7197265625,51.8408203125,50.2783203125,50.1318359375,51.0595703125,56.5771484375,60.3369140625,62.5830078125,65.4150390625,67.2705078125,69.4189453125,70.1025390625,70.4931640625,70.6396484375,70.5908203125,70.0537109375,69.1748046875,67.8076171875,67.3681640625,66.1962890625,64.5361328125,61.9970703125,60.8740234375,59.6044921875,58.7744140625,57.1630859375,55.3564453125,54.0869140625,52.5732421875,51.9384765625,50.7666015625,49.7412109375,49.7412109375,55.4541015625,59.3603515625,62.4853515625,65.2197265625,66.2451171875,68.1005859375,68.6376953125,69.4677734375,69.1748046875,68.3447265625,68.7353515625,67.9541015625,66.4892578125,65.2197265625,64.0966796875,62.4365234375,60.9228515625,59.6533203125,57.2119140625,55.8447265625,54.6728515625,53.9404296875,51.4990234375,49.9365234375,48.9111328125,48.1787109375,47.0556640625,47.9345703125,53.7451171875,58.6767578125,61.8505859375,64.0966796875,66.2939453125,67.4658203125,68.5400390625,69.3212890625,68.6376953125,68.7841796875,68.3935546875,67.2705078125,66.0986328125,64.8291015625,63.1689453125,61.7041015625,59.4580078125,57.4072265625,55.6494140625,54.1357421875,52.2314453125,50.7666015625,49.2529296875,47.9345703125,46.2744140625,44.9560546875,44.4189453125,47.3486328125,53.5986328125,56.7724609375,60.0927734375,62.0458984375,63.9013671875,64.8779296875,65.7080078125,65.9521484375,65.2685546875,65.0732421875,64.0966796875,63.0712890625,61.8994140625,60.9716796875,58.8720703125,56.9677734375,55.9423828125,54.1845703125,52.8662109375,51.6455078125,50.5224609375,49.1064453125,48.1787109375,46.6162109375,45.2490234375,44.5654296875,48.2275390625,53.9404296875,57.8955078125,60.4345703125,62.5830078125,64.1943359375,66.0498046875,66.3916015625,65.6103515625,65.5126953125,65.4150390625,65.2197265625,64.7802734375,63.2177734375,61.9970703125,60.6298828125,58.7255859375,57.0166015625,55.3564453125,53.9404296875,53.1103515625,51.4501953125,50.0341796875,48.6181640625,47.6904296875,46.9091796875,48.3740234375,54.5751953125,58.3349609375,60.9716796875,63.9013671875,65.3173828125,67.0751953125,68.1005859375,67.9052734375,67.0751953125,67.0263671875,66.9287109375,66.0009765625,65.1220703125,63.9501953125,62.9248046875,61.2646484375,59.7021484375,57.6025390625,56.5771484375,55.1123046875,53.9892578125,52.3779296875,50.9619140625,49.7900390625,49.8388671875,49.8876953125,55.6005859375,59.3603515625,62.5341796875,64.9755859375,67.3681640625,68.3935546875,69.9560546875,70.5419921875,69.8583984375,69.4189453125,69.7607421875,68.5400390625,67.9052734375,66.6845703125,65.2197265625,63.5107421875,61.9482421875,59.4580078125,57.9443359375,56.7724609375,56.5283203125,55.0146484375,52.4267578125,50.7666015625,49.8876953125,49.4482421875,53.9892578125,59.9462890625,62.9736328125,64.8291015625,67.1240234375,68.8330078125,69.8095703125,70.6396484375,70.7373046875,69.7607421875,69.7119140625,69.2236328125,68.6865234375,67.7587890625,66.5380859375,65.4150390625,63.5107421875,62.3388671875,60.6787109375,58.8232421875,58.4814453125,57.6513671875,56.4306640625,54.9169921875,53.9892578125,53.5986328125,56.4794921875,62.3876953125,65.2685546875,67.3681640625,69.9072265625,71.7626953125,73.5693359375,73.6669921875,73.5693359375,73.4716796875,73.3740234375,73.1298828125,72.0556640625,70.5908203125,69.9072265625,68.4912109375,67.1728515625,65.6591796875,64.3408203125,63.0224609375,61.6552734375,60.3369140625,59.2626953125,57.7978515625,57.1142578125,56.0888671875,59.7021484375,64.4384765625,67.5634765625,69.3701171875,72.2021484375,74.0576171875,76.0595703125,76.4990234375,76.8896484375,76.8408203125,76.4501953125,76.4013671875,75.3759765625,74.4970703125,73.2275390625,72.2021484375,70.2490234375,68.9794921875,66.9775390625,65.4638671875,63.9990234375,63.3154296875,61.2646484375,59.0185546875,57.7490234375,57.2607421875,58.0908203125,62.8759765625,66.8310546875,68.9794921875,71.2744140625,73.3740234375,75.4736328125,77.2802734375,77.0849609375,76.8408203125,76.5478515625,77.0361328125,75.8642578125,74.7900390625,73.7646484375,72.2021484375,70.4443359375,69.0771484375,66.5869140625,65.6591796875,63.8037109375,62.4853515625,61.0205078125,59.5556640625,58.3837890625,56.6259765625,55.7470703125,56.8701171875,62.7294921875,66.2451171875,68.6865234375,71.2744140625,72.3974609375,74.8876953125,75.3759765625,75.8154296875,75.6201171875,75.9130859375,75.6201171875,74.5947265625,73.4716796875,72.4951171875,71.6650390625,70.0537109375,68.7841796875,66.7822265625,65.8056640625,64.4384765625,62.9248046875,61.9482421875,60.3369140625,58.7255859375,58.0419921875,56.4794921875,57.1630859375,62.5830078125,66.3427734375,69.1748046875,71.3232421875,73.6181640625,74.9853515625,75.9130859375,77.2802734375,77.1337890625,77.0849609375,77.0849609375,76.1572265625,74.8388671875,73.1787109375,72.6904296875,70.5908203125,69.3701171875,67.6611328125,65.4638671875,64.2431640625,63.5107421875,61.4599609375,59.7021484375,58.2861328125,57.6025390625,56.4794921875,55.9912109375,59.7021484375,64.8291015625,68.3447265625,70.9326171875,72.7392578125,74.5458984375,76.1572265625,77.1826171875,77.1337890625,76.8896484375,77.2314453125,76.4501953125,74.7412109375,73.8623046875,73.0810546875,71.6162109375,69.6142578125,67.4169921875,65.1220703125,63.9990234375,62.4853515625,61.3623046875,59.5068359375,57.9443359375,56.1865234375,55.2099609375,54.3310546875,55.0146484375,59.6533203125,64.2431640625,67.4658203125,70.2978515625,72.1533203125,73.9599609375,74.7412109375,74.8876953125,74.5947265625,74.9365234375,74.6923828125,73.1298828125,72.4462890625,71.2255859375,70.6396484375,69.0771484375,66.9287109375,65.4150390625,63.4130859375,62.7294921875,60.8251953125,60.2392578125,58.2861328125,57.1630859375,55.8447265625,54.8681640625,54.0380859375,56.7724609375,63.0224609375,66.7333984375,69.8095703125,71.0791015625,73.1298828125,74.8876953125,75.2783203125,75.5712890625,74.9853515625,74.1552734375,74.4482421875,73.1787109375,72.1533203125,70.7861328125,69.2236328125,67.9052734375,66.1962890625,64.7314453125,62.8759765625,62.0458984375,60.3857421875,58.8232421875,57.2119140625,55.8935546875,55.1123046875,54.2822265625,54.9169921875,61.2646484375,65.2685546875,68.0029296875,70.5908203125,72.9833984375,74.7900390625,75.4248046875,76.1572265625,75.7666015625,75.6689453125,75.8154296875,74.5458984375,73.2763671875,72.3974609375,70.8837890625,69.4677734375,67.7587890625,65.9033203125,64.4384765625,62.7783203125,61.6552734375,60.3857421875,58.7255859375,56.9189453125,55.3076171875,54.7705078125,54.2822265625,58.3837890625,64.2919921875,67.5634765625,69.8583984375,71.9580078125,74.6923828125,76.2060546875,76.6455078125,76.7919921875,76.3525390625,75.7666015625,75.9619140625,74.4970703125,73.6181640625,72.3486328125,70.9326171875,69.3212890625,67.4169921875,65.7568359375,64.5361328125,63.9990234375,61.7041015625,60.0439453125,58.1884765625,57.4072265625,56.4306640625,55.3076171875,55.4541015625,60.6298828125,65.4150390625,68.4423828125,71.3232421875,73.5693359375,75.3271484375,76.1572265625,77.0849609375,76.4990234375,76.7431640625,76.7431640625,76.2060546875,75.3759765625,73.8134765625,73.3251953125,72.4462890625,70.7861328125,69.1259765625,67.2705078125,66.0498046875,65.4638671875,64.6337890625,62.9736328125,61.0205078125,59.9951171875,59.0673828125,58.1396484375,58.7744140625,64.8779296875,68.7841796875,71.3720703125,74.0576171875,75.9619140625,77.5732421875,78.9404296875,79.4775390625,78.7939453125,78.6962890625,78.4521484375,77.8173828125,77.0361328125,75.7177734375,74.4970703125,73.0322265625,71.1767578125,69.6142578125,68.2470703125,66.2939453125,65.0732421875,63.3154296875,62.1923828125,60.8251953125,59.7021484375,58.5302734375,57.5048828125,60.2880859375,66.1474609375,70.1025390625,72.2998046875,74.6923828125,76.5966796875,78.4033203125,78.6474609375,80.0146484375,79.3798828125,78.1591796875,78.7939453125,77.2802734375,76.1083984375,74.6435546875,73.9111328125,71.4208984375,69.7607421875,68.6376953125,66.9287109375,66.0986328125,63.4619140625,62.2412109375,60.9228515625,59.9951171875,58.2373046875,57.4072265625,56.5283203125,60.5322265625,66.0986328125,68.9794921875,72.1533203125,74.0576171875,75.8154296875,77.1337890625,77.7685546875,78.1103515625,77.4267578125,77.7685546875,77.3291015625,76.3525390625,74.9853515625,74.3505859375,72.8857421875,71.2255859375,69.7119140625,67.7587890625,66.5380859375,65.7568359375,64.0966796875,62.5830078125,60.7275390625,59.2138671875,58.6279296875,57.5048828125,61.8505859375,66.8310546875,69.7607421875,72.8857421875,74.4970703125,76.1083984375,77.7685546875,78.1591796875,78.1591796875,77.6708984375,77.4267578125,77.0849609375,75.6689453125,75.4248046875,74.0576171875,72.0556640625,70.6884765625,68.8330078125,66.8798828125,66.0498046875,64.5361328125,63.0224609375,61.7041015625,59.7509765625,59.7021484375,58.5302734375,58.6767578125,63.8525390625,68.1005859375,70.8349609375,73.7646484375,75.8154296875,78.1103515625,79.1845703125,80.6005859375,80.4541015625,80.7470703125,80.2099609375,79.4775390625,78.6474609375,77.0361328125,76.1572265625,74.3505859375,72.4462890625,70.7861328125,68.1982421875,67.0263671875,66.0498046875,64.8291015625,63.4130859375,61.3134765625,60.2392578125,58.6279296875,59.0185546875,65.0732421875,68.8330078125,71.3232421875,74.1552734375,76.3037109375,78.5986328125,79.7705078125,80.9423828125,80.3564453125,79.8193359375,80.4541015625,79.5263671875,78.2080078125,76.6943359375,76.0595703125,74.9853515625,73.2275390625,71.2255859375,70.3466796875,68.1982421875,67.9541015625,66.5380859375,65.0732421875,63.1689453125,61.8994140625,61.3623046875,63.1201171875,68.5400390625,72.0068359375,73.5693359375,76.3525390625,78.7939453125,80.6005859375,81.6259765625,81.6259765625,81.1865234375,81.0400390625,80.9423828125,79.7216796875,79.0380859375,77.6708984375,76.2548828125,75.0341796875,72.9833984375,71.4697265625,69.4677734375,68.1982421875,66.7333984375,65.5615234375,63.8525390625,62.4853515625,62.2412109375,61.4599609375,66.1474609375,71.0302734375,73.1298828125,75.9130859375,78.0615234375,80.2587890625,81.9189453125,81.9189453125,81.8212890625,81.2841796875,81.3330078125,80.8447265625,78.8427734375,78.5009765625,76.4013671875,74.8876953125,73.3251953125,71.3232421875,69.5654296875,67.9541015625,66.4892578125,65.8544921875,63.8525390625,62.1435546875,60.5322265625,59.8974609375,60.6787109375,65.9521484375,71.2744140625,73.4228515625,75.7666015625,78.1103515625,80.0146484375,81.1865234375,81.7724609375,81.4794921875,80.9912109375,80.8935546875,79.5263671875,78.4521484375,77.5244140625,75.9619140625,74.1552734375,72.6416015625,70.5908203125,68.7353515625,67.3193359375,66.0498046875,64.5361328125,63.0224609375,61.2158203125,60.5810546875,59.2626953125,59.9462890625,65.5615234375,69.7119140625,72.5439453125,74.7900390625,77.1826171875,79.2333984375,79.9169921875,80.8447265625,79.7216796875,79.6240234375,78.9404296875,79.1845703125,77.7685546875,76.4501953125,74.8388671875,73.5693359375,71.2255859375,69.5166015625,68.1494140625,66.8798828125,66.0498046875,64.5361328125,62.7294921875,61.4111328125,60.8251953125,58.9208984375,60.9228515625,66.7822265625,70.2490234375,73.9111328125,75.6201171875,77.2314453125,78.8427734375,80.3076171875,79.9658203125,79.2333984375,79.5263671875,78.5498046875,77.9638671875,76.7919921875,75.0341796875,74.2041015625,72.7392578125,70.6884765625,68.5888671875,67.5146484375,65.8544921875,63.9501953125,63.5595703125,61.8017578125,59.8486328125,59.2626953125,59.4580078125,63.1689453125,68.3447265625,71.7626953125,74.3017578125,76.6943359375,78.8916015625,80.7470703125,81.8212890625,81.3818359375,81.7236328125,80.7958984375,80.3076171875,79.2333984375,77.4267578125,76.2548828125,75.0341796875,73.1787109375,70.7861328125,69.5166015625,68.3935546875,66.6845703125,64.7314453125,62.3876953125,61.0205078125,60.5810546875,59.0673828125,59.7509765625,65.4150390625,69.9072265625,72.6416015625,75.4248046875,77.4267578125,79.3310546875,80.1611328125,80.7958984375,80.3564453125,80.6005859375,79.9658203125,79.2333984375,78.0126953125,77.1337890625,75.3271484375,73.9111328125,71.7626953125,69.9072265625,68.2958984375,67.2216796875,65.7568359375,64.8291015625,63.0224609375,62.0458984375,60.7763671875,59.6044921875,61.9970703125,68.0517578125,71.5673828125,74.4482421875,76.4990234375,78.1103515625,79.5751953125,80.6982421875,80.1123046875,80.6494140625,79.3310546875,79.0380859375,77.9150390625,76.8896484375,75.2294921875,74.2529296875,72.5439453125,70.9814453125,69.3701171875,67.5146484375,66.0498046875,64.5361328125,63.0224609375,61.9482421875,60.1416015625,59.5556640625,60.7763671875,67.2216796875,70.7861328125,73.5205078125,76.1083984375,78.1103515625,79.6240234375,80.8447265625,81.6748046875,81.5771484375,81.4794921875,81.2841796875,80.0146484375,78.4521484375,76.9384765625,75.1318359375,74.3994140625,71.6162109375,69.6142578125,68.0517578125,66.7822265625,65.1220703125,62.8759765625,61.5576171875,60.9716796875,59.6533203125,59.5556640625,64.7802734375,70.0537109375,72.9345703125,75.7177734375,77.1337890625,78.8427734375,79.9169921875,80.4541015625,79.3798828125,79.6240234375,79.8193359375,78.9404296875,77.2314453125,75.6689453125,74.4482421875,72.8369140625,71.2255859375,68.4912109375,67.0263671875,66.0009765625,64.6826171875,62.8271484375,61.5576171875,60.0439453125,58.8232421875,57.8466796875,61.1669921875,66.9775390625,70.2001953125,73.2275390625,75.1318359375,76.6943359375,78.3544921875,78.7939453125,78.6962890625,78.1591796875,77.7685546875,77.1337890625,76.3037109375,75.3759765625,73.3251953125,72.3486328125,70.2490234375,68.6376953125,67.1240234375,65.8544921875,64.9755859375,64.1455078125,62.0458984375,60.7275390625,59.4580078125,59.0673828125,63.7548828125,68.9794921875,71.7138671875,74.3505859375,76.2060546875,78.0126953125,78.9404296875,79.3310546875,79.6240234375,78.8916015625,79.1357421875,77.2802734375,77.3291015625,74.9365234375,73.7158203125,72.7392578125,70.3955078125,68.4912109375,66.8798828125,65.8544921875,64.1943359375,62.6806640625,61.2158203125,60.4345703125,59.0673828125,60.9716796875,67.5146484375,70.9326171875,73.8134765625,75.9619140625,77.8173828125,79.4287109375,80.6982421875,80.5517578125,80.6494140625,80.2587890625,79.7705078125,78.9404296875,77.1826171875,76.1572265625,74.5458984375,73.1298828125,70.9326171875,68.7353515625,66.7822265625,65.4638671875,65.0244140625,62.8271484375,61.0205078125,59.1650390625,58.5791015625,60.3857421875,66.9287109375,71.0791015625,74.3994140625,76.2060546875,77.1337890625,79.1357421875,79.5263671875,80.3076171875,79.9658203125,78.5986328125,78.1591796875,77.0849609375,76.0595703125,74.8388671875,73.8134765625,71.8603515625,69.7119140625,68.2470703125,66.8310546875,65.6103515625,63.9501953125,62.7783203125,61.0205078125,60.0927734375,58.5791015625,59.6044921875,66.0986328125,70.8349609375,73.4716796875,75.6201171875,77.7685546875,79.0380859375,79.7705078125,80.0634765625,79.6728515625,78.9404296875,78.7451171875,78.1591796875,76.6943359375,75.2294921875,74.1064453125,72.2998046875,70.3466796875,68.5888671875,67.1728515625,66.2939453125,64.3408203125,63.1201171875,61.7529296875,60.0927734375,59.3603515625,60.7763671875,67.6611328125,71.2744140625,73.9599609375,76.0595703125,77.6220703125,79.5751953125,80.2587890625,80.2099609375,79.3798828125,79.6240234375,78.8916015625,78.0126953125,77.1337890625,75.1806640625,74.3505859375,72.5439453125,70.2490234375,69.3212890625,67.8564453125,65.7080078125,65.3173828125,63.4130859375,61.8017578125,60.7275390625,59.1162109375,61.6552734375,67.8564453125,71.6650390625,74.0576171875,76.6943359375,78.6962890625,79.5263671875,80.6005859375,80.9423828125,80.4541015625,79.9169921875,79.7705078125,78.9404296875,77.3291015625,75.3271484375,73.5205078125,72.4462890625,70.5419921875,68.4423828125,66.3916015625,64.6826171875,63.2177734375,62.2412109375,61.2158203125,59.2626953125,57.3095703125,57.5048828125,62.8271484375,68.7353515625,71.4208984375,73.6669921875,76.2060546875,77.9638671875,78.5986328125,78.8916015625,78.6474609375,78.5986328125,77.9150390625,77.7197265625,76.0595703125,74.9365234375,73.1298828125,72.3974609375,69.9560546875,68.3447265625,66.6845703125,65.1220703125,63.9501953125,61.9482421875,60.4345703125,59.3603515625,57.8466796875,57.6025390625,60.6787109375,67.0263671875,70.7373046875,73.3740234375,74.9853515625,76.7919921875,77.8173828125,78.1103515625,77.5244140625,76.8896484375,77.3291015625,76.4013671875,75.4248046875,73.8134765625,72.2509765625,70.5908203125,68.7841796875,66.9287109375,65.4150390625,64.0478515625,62.2412109375,60.6298828125,59.8974609375,57.9443359375,56.7724609375,56.2353515625,55.9423828125,61.9482421875,67.4169921875,70.8837890625,73.6669921875,76.0107421875,77.2802734375,78.1591796875,78.5986328125,77.7197265625,78.2080078125,77.4267578125,77.0849609375,75.5712890625,75.3271484375,73.7158203125,71.6650390625,69.4189453125,67.3681640625,65.7568359375,64.8779296875,62.9248046875,61.0693359375,58.8720703125,57.6513671875,57.1142578125,56.5771484375,56.7724609375,62.0947265625,67.2705078125,70.9326171875,73.2275390625,74.9365234375,76.9384765625,77.5732421875,77.2802734375,77.4267578125,77.7197265625,77.2314453125,76.9873046875,75.8642578125,75.0830078125,73.8134765625,72.4951171875,71.2255859375,69.7607421875,67.6123046875,66.5380859375,64.9267578125,64.6337890625,63.2177734375,62.2412109375,61.0205078125,60.6298828125,66.0986328125,71.0791015625,73.6181640625,76.4013671875,77.9150390625,79.8193359375,80.6005859375,80.8447265625,80.8447265625,80.3076171875,80.9423828125,79.8681640625,79.3798828125,78.4033203125,76.4501953125,74.6923828125,73.0810546875,71.5185546875,70.4931640625,68.9306640625,66.8798828125,66.4404296875,64.2919921875,63.5107421875,63.0712890625,65.3662109375,71.2255859375,74.7412109375,76.7919921875,78.9404296875,80.7470703125,82.6513671875,83.3349609375,83.4326171875,83.0419921875,82.7978515625,82.3095703125,81.8212890625,80.3564453125,80.0146484375,78.6474609375,76.5966796875,75.2783203125,73.9111328125,72.9345703125,71.5185546875,69.9072265625,68.8818359375,66.7333984375,65.1220703125,65.6103515625,70.1513671875,74.6435546875,76.5966796875,79.3310546875,81.2353515625,83.6279296875,85.0439453125,85.7275390625,84.8974609375,84.0673828125,84.2626953125,83.7744140625,83.3837890625,81.6748046875,80.5029296875,78.6962890625,77.1826171875,75.2294921875,74.2529296875,73.1298828125,71.6162109375,69.8095703125,69.2236328125,68.0029296875,66.7822265625,66.9287109375,70.3466796875,74.9853515625,77.9638671875,80.0634765625,82.0654296875,84.0673828125,85.4833984375,85.2880859375,85.3369140625,85.8251953125,85.2880859375,84.7509765625,83.8720703125,82.1142578125,81.2353515625,80.4052734375,78.6474609375,77.3291015625,75.7666015625,74.4482421875,73.4228515625,71.7138671875,70.0537109375,69.4677734375,67.7099609375,65.8544921875,68.3447265625,73.6181640625,77.1826171875,79.7705078125,81.9189453125,83.2861328125,85.1904296875,86.3623046875,86.4111328125,85.8251953125,85.2880859375,85.1416015625,84.9951171875,82.9443359375,81.9189453125,80.2099609375,78.7451171875,77.4267578125,75.5224609375,74.1552734375,72.7392578125,71.7138671875,69.8095703125,68.3935546875,66.7822265625,65.8056640625,65.4150390625,66.1962890625,71.1767578125,76.1572265625,78.6962890625,81.0400390625,83.1884765625,85.1904296875,85.8740234375,86.6552734375,86.2646484375,85.7275390625,85.6787109375,85.3857421875,84.1650390625,82.3095703125,81.2841796875,80.1611328125,77.5732421875,75.6201171875,74.3505859375,72.9833984375,71.1279296875,68.8330078125,67.3193359375,66.7822265625,65.2197265625,63.4619140625,62.3388671875,63.9990234375,70.0048828125,74.3505859375,77.3779296875,79.8193359375,81.3330078125,83.0419921875,83.2861328125,84.1650390625,84.2626953125,83.3837890625,82.7490234375,81.5283203125,80.4541015625,79.2333984375,78.4521484375,76.8896484375,74.6923828125,72.9345703125,71.3720703125,70.3466796875,69.2236328125,68.0029296875,65.8056640625,65.2685546875,63.8037109375,63.2177734375,62.1435546875,66.8798828125,71.9091796875,74.7900390625,77.4755859375,79.3310546875,80.6005859375,81.8701171875,82.5048828125,82.1142578125,81.9677734375,81.8212890625,81.2841796875,80.6982421875,79.4287109375,77.9150390625,76.3037109375,74.7412109375,72.5439453125,70.8837890625,69.5166015625,68.6376953125,67.1728515625,65.1708984375,63.8037109375,62.2900390625,61.3623046875,61.1181640625,64.8291015625,70.7373046875,74.3017578125,76.8408203125,79.1845703125,81.7724609375,83.3349609375,84.6044921875,84.3115234375,84.3603515625,82.9443359375,83.1396484375,81.8701171875,81.5283203125,80.6005859375,78.5986328125,76.5478515625,74.3994140625,72.3974609375,71.1767578125,70.2001953125,69.0771484375,66.1474609375,63.9990234375,62.9736328125,62.2900390625,62.0947265625,63.9501953125,70.0537109375,73.5205078125,76.4990234375,78.9404296875,80.6494140625,81.9189453125,82.9443359375,83.2861328125,82.0166015625,81.8701171875,81.9189453125,80.9423828125,80.1123046875,78.4521484375,76.6943359375,75.7177734375,73.6669921875,71.6162109375,70.9326171875,69.0771484375,67.6123046875,65.9033203125,64.6337890625,63.3642578125,62.6806640625,61.3134765625,65.6103515625,70.7861328125,74.5947265625,76.3525390625,78.9404296875,80.4052734375,81.1865234375,82.0654296875,81.4306640625,81.9189453125,82.0654296875,80.6982421875,79.7216796875,78.9404296875,77.0361328125,75.6689453125,73.8623046875,72.4462890625,70.4443359375,69.2236328125,67.5634765625,66.4404296875,65.0244140625,63.0224609375,62.1435546875,61.5576171875,64.2919921875,70.1513671875,73.6669921875,76.2548828125,78.5498046875,81.1865234375,82.3095703125,83.1396484375,83.1884765625,82.6025390625,82.3583984375,82.1142578125,81.2841796875,80.3564453125,79.4287109375,77.5244140625,75.7666015625,74.1552734375,72.1044921875,70.3955078125,68.4912109375,67.8564453125,65.6591796875,64.2919921875,62.6318359375,61.6552734375,61.7041015625,66.9775390625,72.2998046875,74.9365234375,77.5732421875,79.5751953125,81.0400390625,81.7724609375,83.1884765625,82.2607421875,81.7236328125,81.4794921875,80.9912109375,80.3564453125,78.7451171875,76.9873046875,75.4736328125,74.2041015625,71.8115234375,70.9814453125,69.6142578125,68.1005859375,66.6357421875,64.9755859375,63.9013671875,63.1689453125,61.9482421875,63.9501953125,69.6630859375,73.8134765625,77.1337890625,79.0380859375,80.7958984375,82.5537109375,82.5537109375,82.6513671875,82.8466796875,82.1630859375,81.6259765625,81.4306640625,79.6728515625,78.7939453125,76.9384765625,75.2294921875,73.7646484375,72.2021484375,70.6396484375,69.1259765625,67.9052734375,66.3427734375,64.5849609375,63.3642578125,62.8271484375,65.7080078125,71.9580078125,75.4736328125,78.0615234375,79.8193359375,81.6748046875,83.4326171875,83.2861328125,82.6513671875,82.6025390625,82.7001953125,81.5283203125,81.0888671875,79.2822265625,78.6962890625,76.9384765625,74.7412109375,73.1298828125,71.2744140625,70.1513671875,69.2724609375,67.8564453125,66.3916015625,64.7802734375,63.4130859375,63.4619140625,67.5146484375,73.4716796875,76.8896484375,78.7939453125,80.6982421875,82.5048828125,84.6044921875,84.9951171875,84.7998046875,83.8232421875,83.6279296875,82.9443359375,82.1630859375,81.3818359375,79.2822265625,77.9150390625,75.3271484375,73.4716796875,72.5439453125,71.3232421875,70.0048828125,67.8076171875,65.8544921875,64.5849609375,63.5595703125,62.8759765625,65.2197265625,71.2744140625,74.3017578125,77.8662109375,79.4775390625,81.8701171875,82.9931640625,83.6279296875,83.8720703125,82.9931640625,83.2373046875,82.7001953125,81.7236328125,81.0888671875,79.6728515625,78.4521484375,76.8896484375,75.1806640625,73.1787109375,72.1533203125,71.3232421875,69.8583984375,68.8330078125,66.9775390625,65.8544921875,65.2685546875,65.7080078125,71.6162109375,75.8154296875,78.8427734375,80.2099609375,82.2607421875,84.0185546875,84.2626953125,83.9697265625,83.8720703125,83.7744140625,83.7744140625,83.1884765625,81.4794921875,80.5029296875,79.1357421875,77.8662109375,76.0107421875,73.6669921875,72.2509765625,71.2255859375,69.1259765625,67.6611328125,66.5869140625,64.5849609375,63.8037109375,62.9248046875,65.7080078125,71.9580078125,75.8154296875,78.5009765625,80.8447265625,82.4560546875,84.6044921875,85.4345703125,86.1181640625,85.5322265625,85.6298828125,84.7021484375,83.6767578125,82.6025390625,81.5771484375,80.7470703125,78.7451171875,76.5478515625,74.5947265625,73.1298828125,71.9091796875,70.3955078125,69.2236328125,67.6611328125,65.6591796875,63.5107421875,63.6083984375,65.9033203125,72.4462890625,76.1572265625,78.7451171875,81.0888671875,83.0419921875,84.6044921875,85.7763671875,85.8251953125,85.2392578125,85.1904296875,85.1904296875,84.5556640625,83.8232421875,82.2607421875,81.3818359375,79.7216796875,77.9638671875,76.8408203125,75.8154296875,73.7158203125,72.9833984375,71.6162109375,70.4931640625,69.0771484375,68.5888671875,67.5146484375,69.6142578125,75.3271484375,78.5009765625,81.6259765625,83.6767578125,85.2880859375,86.5087890625,87.7783203125,87.2412109375,87.0458984375,87.0947265625,86.9482421875,86.9970703125,85.8251953125,84.3115234375,82.4560546875,81.4794921875,79.8681640625,78.1591796875,76.9873046875,75.4248046875,74.3505859375,72.2021484375,71.5673828125,70.3955078125,69.7119140625,69.4677734375,74.8388671875,79.2333984375,81.9189453125,84.6044921875,86.8505859375,88.0712890625,89.7802734375,90.3173828125,89.9755859375,90.0732421875,89.6337890625,88.9990234375,88.3642578125,87.5830078125,86.2158203125,85.0439453125,83.4814453125,81.5283203125,79.9658203125,78.9404296875,77.4755859375,75.9130859375,73.4228515625,72.7392578125,71.4697265625,70.7861328125,72.8857421875,78.5009765625,81.1865234375,83.5302734375,85.9716796875,88.1201171875,89.7314453125,90.1220703125,90.8056640625,90.5615234375,90.6103515625,90.0732421875,89.2431640625,87.9248046875,86.4111328125,85.5322265625,84.1162109375,81.9189453125,79.7705078125,78.7451171875,76.8408203125,76.2548828125,74.9853515625,72.8369140625,71.4697265625,70.9326171875,69.6630859375,69.5166015625,74.8388671875,79.2822265625,82.0654296875,84.8974609375,86.3134765625,88.2177734375,89.3408203125,89.8779296875,89.7802734375,89.2919921875,90.1220703125,89.0966796875,88.0224609375,87.0947265625,86.2646484375,84.4580078125,83.2861328125,81.6748046875,80.1123046875,78.9404296875,78.1591796875,76.4990234375,74.5947265625,73.8623046875,72.0068359375,70.6884765625,70.9814453125,75.9619140625,79.8193359375,83.0908203125,85.3857421875,86.8994140625,88.9013671875,90.2197265625,90.8056640625,90.8056640625,90.5615234375,90.6103515625,89.3408203125,89.2431640625,87.6318359375,86.8017578125,84.9462890625,83.7255859375,81.5283203125,79.9169921875,78.8427734375,77.4267578125,76.2548828125,75.0830078125,73.3251953125,72.3486328125,71.1279296875,70.9814453125,75.7177734375,80.1611328125,83.1884765625,85.0439453125,87.6318359375,89.9267578125,91.2939453125,92.0751953125,92.3681640625,91.8798828125,92.3681640625,91.3916015625,91.0986328125,89.5361328125,88.5595703125,86.8017578125,85.4345703125,82.7978515625,81.8701171875,80.3564453125,79.3310546875,77.2802734375,76.0595703125,74.3994140625,72.9833984375,72.5439453125,71.5673828125,72.1044921875,77.6708984375,81.3818359375,84.3603515625,86.8505859375,88.6572265625,90.5615234375,91.0009765625,91.8310546875,92.2216796875,91.7822265625,91.8310546875,91.0498046875,90.5615234375,89.4384765625,88.9501953125,87.4853515625,85.4833984375,84.2626953125,82.5537109375,81.0400390625,80.1611328125,78.6962890625,77.1337890625,75.8642578125,74.4482421875,73.5693359375,73.7158203125,79.4775390625,82.9443359375,85.3369140625,87.5830078125,89.5361328125,90.9521484375,92.3193359375,93.0517578125,92.8076171875,92.5146484375,92.6123046875,91.9287109375,90.8056640625,89.8291015625,88.9501953125,87.3876953125,85.9716796875,83.6767578125,82.5537109375,80.8935546875,79.3310546875,78.5009765625,76.5966796875,75.1806640625,73.5693359375,73.0810546875,72.2998046875,75.6689453125,81.3330078125,83.6767578125,86.9482421875,88.5595703125,90.2197265625,91.2451171875,93.7841796875,93.6376953125,93.1005859375,92.9541015625,92.6123046875,91.2939453125,90.4638671875,89.4384765625,87.9736328125,85.9228515625,84.5556640625,82.7490234375,81.4306640625,80.0634765625,78.2568359375,76.1572265625,74.7900390625,72.6416015625,71.5185546875,71.0791015625,70.6396484375,74.8876953125,80.2099609375,82.2119140625,84.9951171875,87.1435546875,88.7548828125,89.9755859375,91.0009765625,90.7568359375,91.1962890625,90.6103515625,90.1220703125,89.8779296875,88.1689453125,86.8017578125,85.5810546875,83.9208984375,82.2119140625,80.6005859375,79.3310546875,77.9638671875,76.5966796875,74.7412109375,73.9111328125,72.3974609375,71.3720703125,69.8095703125,70.0537109375,75.3271484375,79.6240234375,83.0908203125,85.7275390625,87.2900390625,88.2666015625,89.7802734375,90.1708984375,89.8291015625,90.0732421875,89.1943359375,88.9990234375,87.8271484375,86.4599609375,84.9951171875,83.1396484375,81.6259765625,80.0146484375,78.2568359375,76.5966796875,75.7666015625,74.7412109375,73.2275390625,71.6162109375,70.7373046875,69.4189453125,68.7841796875,70.4931640625,77.0849609375,81.2353515625,84.2138671875,86.5087890625,88.6083984375,90.0244140625,90.9521484375,91.1962890625,91.3427734375,91.0009765625,90.3662109375,90.1708984375,88.8525390625,87.5830078125,86.4599609375,84.6044921875,82.0166015625,80.6982421875,78.4033203125,77.2314453125,75.9130859375,74.5458984375,72.0556640625,71.1279296875,69.9072265625,68.5888671875,69.6630859375,76.4501953125,80.3564453125,83.1884765625,85.5322265625,87.2900390625,89.3408203125,91.1474609375,91.2939453125,91.2451171875,90.2685546875,90.0732421875,89.3896484375,88.9013671875,87.9736328125,86.8505859375,85.7275390625,82.9931640625,80.9912109375,79.7216796875,78.7939453125,77.9638671875,76.3037109375,74.9853515625,73.2275390625,72.5439453125,71.8603515625,73.6669921875,79.6240234375,83.0419921875,85.7275390625,88.9990234375,90.6591796875,91.2939453125,92.5634765625,93.0029296875,92.4658203125,92.5146484375,92.7099609375,91.1474609375,89.5849609375,88.5107421875,88.2177734375,86.6064453125,84.6533203125,83.1396484375,81.2841796875,79.9169921875,79.6240234375,78.0126953125,77.2314453125,75.0341796875,74.6435546875,75.5712890625,81.1865234375,85.0927734375,87.1923828125,89.8291015625,91.9775390625,94.0283203125,94.8583984375,95.3466796875,95.3955078125,95.4443359375,95.8349609375,94.9560546875,93.6376953125,92.7099609375,91.4892578125,90.2685546875,88.1201171875,86.6552734375,85.4833984375,84.6533203125,83.1884765625,81.1376953125,79.5751953125,78.5986328125,77.3779296875,78.7939453125,83.5302734375,87.2412109375,89.2431640625,91.3427734375,93.4912109375,95.7373046875,96.6162109375,97.5927734375,96.8603515625,97.0068359375,95.9814453125,95.4443359375,94.0771484375,92.4658203125,91.2939453125,89.8779296875,88.2177734375,86.0693359375,84.4091796875,83.3837890625,81.7724609375,80.2099609375,78.9892578125,77.2802734375,76.2060546875,75.5712890625,79.8681640625,84.5556640625,87.1435546875,89.3408203125,92.1240234375,93.4423828125,95.5908203125,96.6162109375,96.9580078125,96.2255859375,96.1767578125,95.7373046875,95.4443359375,93.7841796875,92.5146484375,90.8544921875,89.6337890625,87.1923828125,86.1669921875,84.8486328125,84.3603515625,81.7236328125,80.6494140625,78.9404296875,77.6220703125,76.7431640625,77.1826171875,82.4072265625,86.8017578125,88.8525390625,91.6845703125,94.2724609375,95.4931640625,96.5673828125,97.1044921875,96.6650390625,95.9326171875,96.2744140625,95.6884765625,94.3701171875,93.0029296875,91.7822265625,89.7314453125,88.4619140625,86.3623046875,84.6044921875,83.6279296875,82.5048828125,80.1611328125,78.8427734375,77.2314453125,76.2548828125,75.6201171875,78.8427734375,83.9697265625,86.8994140625,89.3896484375,91.5380859375,94.0283203125,95.3955078125,96.1279296875,96.4208984375,96.1279296875,95.4931640625,94.9560546875,93.7353515625,93.1982421875,92.1240234375,90.3662109375,87.9736328125,85.8251953125,83.1884765625,81.3330078125,80.8935546875,79.2822265625,78.1591796875,75.2783203125,74.2529296875,73.1787109375,72.4462890625,73.6181640625,80.3564453125,84.0185546875,85.9716796875,88.3642578125,91.0986328125,91.9775390625,93.3935546875,93.0029296875,92.8564453125,92.7587890625,92.7099609375,91.4404296875,90.5615234375,89.7314453125,88.3642578125,86.6064453125,84.9951171875,83.3837890625,81.5283203125,80.0634765625,78.6474609375,77.3291015625,75.7666015625,73.5693359375,72.3974609375,71.1767578125,71.5673828125,76.9384765625,82.0166015625,84.7998046875,87.6318359375,88.9501953125,90.6591796875,91.1962890625,92.1728515625,91.3916015625,91.1474609375,90.4150390625,90.0244140625,88.8525390625,86.8994140625,86.1669921875,85.0927734375,83.0908203125,81.3818359375,79.7216796875,78.6962890625,77.6708984375,75.9130859375,74.1064453125,72.9345703125,71.5185546875,70.8349609375,72.1044921875,77.3291015625,82.3583984375,85.1416015625,87.5341796875,89.8779296875,91.6357421875,91.9775390625,92.3681640625,92.1728515625,91.9775390625,91.4892578125,89.5849609375,88.3642578125,86.8994140625,84.9462890625,84.0185546875,81.8212890625,79.4775390625,76.7431640625,75.2294921875,73.6181640625,72.0556640625,70.7373046875,69.6142578125,68.1982421875,66.9287109375,69.8095703125,76.7431640625,80.7470703125,83.5791015625,85.3369140625,87.0458984375,88.4619140625,88.9501953125,88.8525390625,87.9736328125,87.8271484375,87.1923828125,86.5087890625,84.6044921875,83.7744140625,82.2607421875,79.9658203125,78.4521484375,76.5966796875,74.9365234375,74.2041015625,72.6904296875,71.2255859375,69.8095703125,69.2236328125,67.6123046875,71.3232421875,78.0615234375,80.9423828125,83.6767578125,85.4833984375,87.5830078125,88.4619140625,88.1201171875,88.3642578125,87.6318359375,86.9970703125,86.8994140625,85.7763671875,84.2626953125,83.0908203125,81.4306640625,79.2822265625,78.1103515625,76.0595703125,74.0087890625,72.8857421875,72.0068359375,70.1025390625,68.8330078125,68.1494140625,68.0029296875,74.9853515625,80.3076171875,82.7978515625,85.3369140625,87.3388671875,88.8525390625,89.3896484375,90.0732421875,89.2431640625,88.9501953125,88.5107421875,88.0224609375,87.5830078125,88.0224609375,83.7744140625,80.3076171875,81.1376953125,80.3076171875,78.8916015625,75.4736328125,74.3017578125,72.9833984375,71.3720703125,70.3955078125,71.4208984375,77.6708984375,83.0419921875,85.2392578125,86.8017578125,88.6083984375,90.6591796875,91.7822265625,91.4892578125,90.8544921875,90.5615234375,90.0732421875,89.5849609375,87.8759765625,87.5341796875,85.6787109375,84.8974609375,82.3583984375,81.0888671875,80.4052734375,77.9150390625,76.9873046875,75.2294921875,74.2529296875,73.3251953125,75.0830078125,81.0888671875,84.6533203125,87.7294921875,89.6337890625,91.0009765625,92.1240234375,92.4169921875,92.5634765625,91.6357421875,92.1240234375,91.4892578125,90.5126953125,89.5849609375,88.1689453125,87.3876953125,85.6787109375,84.0673828125,82.5048828125,80.6494140625,79.5263671875,78.4521484375,76.3037109375,75.9619140625,74.3994140625,76.4501953125,82.8466796875,86.3134765625,89.0966796875,91.0009765625,93.0029296875,94.0283203125,95.0048828125,94.5166015625,93.8818359375,93.9306640625,93.6376953125,93.3935546875,91.7333984375,90.8056640625,89.7314453125,88.4130859375,86.6552734375,84.5068359375,82.9931640625,81.8701171875,80.5029296875,78.8916015625,77.4267578125,77.2314453125,79.3798828125,84.8486328125,88.6572265625,91.4404296875,93.5888671875,94.9560546875,96.5185546875,97.2998046875,97.4462890625,96.7138671875,96.6162109375,96.0791015625,95.3955078125,94.3212890625,93.0029296875,90.9521484375,89.3408203125,87.6318359375,86.8505859375,84.9951171875,83.9697265625,81.9189453125,80.7958984375,79.1357421875,78.0126953125,79.4775390625,85.0439453125,89.2431640625,91.7333984375,93.3447265625,95.2978515625,96.9580078125,97.5927734375,97.7392578125,97.1533203125,97.2509765625,96.5185546875,96.6162109375,95.3466796875,94.3701171875,92.9541015625,91.2939453125,90.0244140625,88.1689453125,86.9482421875,86.3134765625,84.7509765625,83.0419921875,81.4306640625,81.2353515625,81.2841796875,87.2412109375,90.6103515625,92.7587890625,95.2490234375,97.2509765625,98.9111328125,99.2529296875,100.3759765625,98.8134765625,98.7158203125,98.4716796875,97.4951171875,97.1533203125,95.6396484375,94.2236328125,92.3193359375,90.3173828125,88.7060546875,87.1435546875,86.2646484375,84.3115234375,82.9443359375,81.6259765625,80.1123046875,79.5751953125,82.9931640625,88.7060546875,92.0263671875,94.0283203125,96.7626953125,98.1787109375,100.0341796875,100.9619140625,100.6689453125,101.3525390625,101.2060546875,100.0830078125,99.3505859375,98.3251953125,97.0556640625,95.1025390625,93.5888671875,91.9287109375,89.4384765625,88.3642578125,87.1435546875,85.1416015625,83.9208984375,82.4072265625,81.1376953125,80.4052734375,81.0400390625,86.4599609375,90.9521484375,93.8818359375,96.1279296875,98.2275390625,99.1552734375,100.7177734375,100.4248046875,100.4736328125,100.2783203125,99.5458984375,98.6669921875,97.7392578125,96.8603515625,95.7861328125,94.5166015625,92.1728515625,90.2685546875,89.1943359375,88.7548828125,87.4853515625,84.9951171875,83.8720703125,82.4560546875,81.9677734375,81.8212890625,86.8505859375,91.4404296875,94.0283203125,96.9091796875,98.1298828125,99.6435546875,100.6689453125,101.2548828125,100.5224609375,100.3271484375,100.7666015625,100.1318359375,98.6669921875,97.3486328125,96.1279296875,94.9560546875,92.8564453125,90.7080078125,89.2919921875,88.1201171875,86.8505859375,85.3369140625,83.8720703125,82.3583984375,81.4306640625,81.3330078125,86.0693359375,90.5126953125,93.5400390625,96.2744140625,98.1787109375,99.0087890625,101.2548828125,101.9384765625,101.1572265625,101.1083984375,101.2060546875,100.1806640625,99.4970703125,98.0322265625,97.0556640625,95.8349609375,94.1748046875,92.1240234375,90.3173828125,89.3408203125,87.8759765625,86.8994140625,84.9951171875,83.8720703125,82.1142578125,81.4794921875,82.1630859375,87.7783203125,91.6845703125,94.4189453125,97.0068359375,98.6669921875,100.0830078125,101.4501953125,102.1337890625,101.3525390625,100.7666015625,100.4248046875,98.9599609375,98.4228515625,97.7392578125,96.6650390625,95.0048828125,92.8076171875,90.4638671875,89.4384765625,88.6083984375,87.4853515625,85.3369140625,83.7255859375,82.3095703125,81.6259765625,80.3564453125,83.9697265625,88.9013671875,92.9052734375,95.1025390625,97.3486328125,98.4228515625,100.2783203125,100.9619140625,101.2060546875,100.8642578125,100.5224609375,99.9853515625,99.4970703125,98.4228515625,97.8857421875,95.5419921875,94.5166015625,92.7099609375,91.2939453125,90.5126953125,89.4873046875,87.8759765625,86.7041015625,84.8974609375,83.9208984375,83.4814453125,88.4130859375,93.0029296875,95.3466796875,97.6416015625,98.8134765625,100.4736328125,101.4013671875,101.7431640625,101.4990234375,100.9130859375,100.4248046875,100.0341796875,98.7158203125,97.7880859375,95.7861328125,94.6630859375,92.9541015625,91.4892578125,89.5361328125,88.4619140625,87.5341796875,84.7509765625,83.9697265625,82.8955078125,82.2607421875,83.6279296875,89.2919921875,92.0263671875,95.3466796875,97.8857421875,99.6435546875,101.5966796875,102.6220703125,103.8427734375,102.6708984375,102.4267578125,102.2314453125,101.1083984375,100.6201171875,99.2041015625,97.2509765625,95.2978515625,94.1748046875,91.8310546875,90.0732421875,88.7060546875,87.5341796875,85.5810546875,83.6279296875,82.2119140625,82.2119140625,81.1376953125,86.7529296875,90.8544921875,93.6376953125,96.6162109375,98.2275390625,99.9853515625,101.5966796875,101.6455078125,101.5478515625,100.3759765625,100.5712890625,100.5224609375,99.7412109375,97.9833984375,96.5673828125,95.2001953125,93.4912109375,91.5380859375,90.4638671875,89.0966796875,87.2412109375,85.8740234375,84.8486328125,83.0908203125,82.9931640625,82.1630859375,85.6787109375,91.5869140625,94.4189453125,96.4208984375,98.6181640625,100.0341796875,100.9130859375,101.4990234375,100.9130859375,100.6689453125,100.7666015625,100.3759765625,99.1552734375,97.4951171875,96.0302734375,94.9560546875,93.1005859375,91.3916015625,90.2685546875,88.4130859375,86.0693359375,85.5322265625,83.8720703125,82.7001953125,82.1630859375,81.7236328125,85.5810546875,91.0009765625,94.4189453125,96.9091796875,98.3740234375,100.5224609375,101.8408203125,101.9384765625,102.1337890625,101.7431640625,101.7919921875,101.0107421875,100.3759765625,99.1064453125,98.3251953125,96.6162109375,94.6630859375,92.7099609375,91.2939453125,89.6826171875,88.5595703125,86.8017578125,85.9716796875,84.6044921875,84.2138671875,82.9931640625,86.1669921875,91.8310546875,95.2490234375,97.3974609375,99.2529296875,100.7177734375,102.0361328125,102.9150390625,102.5244140625,102.5244140625,102.0849609375,101.8408203125,100.5224609375,99.1552734375,98.0810546875,96.4697265625,95.1513671875,93.8330078125,91.3427734375,90.0244140625,88.8525390625,88.3642578125,87.1435546875,85.4345703125,83.9208984375,83.0908203125,87.7294921875,92.6611328125,95.7861328125,98.4228515625,99.6435546875,101.5966796875,102.6220703125,102.9638671875,102.8662109375,103.2080078125,103.0126953125,102.5732421875,101.3037109375,100.0830078125,99.2041015625,97.4462890625,96.6162109375,94.4189453125,93.2470703125,91.8798828125,90.0732421875,88.8037109375,86.8505859375,86.5087890625,84.7998046875,87.4365234375,92.7099609375,95.9326171875,97.9833984375,100.4248046875,102.2802734375,103.4521484375,104.3798828125,104.5751953125,103.5986328125,103.8427734375,103.0615234375,102.9150390625,101.5966796875,100.0830078125,98.7646484375,97.0556640625,95.5419921875,94.1748046875,92.4658203125,91.6357421875,90.2197265625,88.8037109375,87.2412109375,86.2646484375,86.3134765625,90.5615234375,95.9814453125,98.1298828125,100.6201171875,102.4267578125,103.7451171875,105.2099609375,105.1611328125,105.5029296875,104.8681640625,104.5263671875,103.9892578125,103.2568359375,101.9384765625,100.0341796875,98.7646484375,96.6162109375,95.4931640625,93.2958984375,91.3916015625,90.5615234375,89.3408203125,87.6806640625,86.7041015625,85.9716796875,84.9951171875,89.7314453125,94.6142578125,97.5927734375,100.5224609375,101.6943359375,102.9150390625,104.0380859375,105.0146484375,104.8193359375,104.2333984375,104.1845703125,103.7451171875,102.8662109375,101.9873046875,100.6689453125,99.3017578125,97.9345703125,95.9326171875,94.7119140625,93.2470703125,91.7822265625,90.5615234375,89.0966796875,88.0224609375,87.5341796875,88.9990234375,95.0048828125,98.0810546875,100.6201171875,102.2802734375,104.0869140625,104.8681640625,105.9423828125,105.8935546875,104.5263671875,105.0146484375,103.9404296875,102.8173828125,101.9384765625,100.5712890625,98.5693359375,96.9580078125,94.5654296875,93.6376953125,91.9775390625,90.9033203125,89.3896484375,87.0458984375,86.6064453125,85.2392578125,84.1162109375,87.1435546875,92.5634765625,96.3232421875,98.7158203125,100.5224609375,102.0849609375,104.1357421875,104.9658203125,105.0634765625,104.4287109375,104.1357421875,103.7939453125,102.6220703125,101.4990234375,100.3759765625,98.3740234375,97.2509765625,94.7119140625,93.1494140625,91.2451171875,90.0244140625,88.1689453125,86.9482421875,85.2392578125,84.7998046875,83.0419921875,83.0419921875,87.0947265625,92.7099609375,95.9326171875,99.0087890625,100.8642578125,101.8896484375,104.0869140625,104.1357421875,104.2822265625,103.4033203125,102.7197265625,102.5732421875,102.1337890625,100.7177734375,99.6435546875,98.2763671875,96.0302734375,94.9072265625,93.4912109375,92.0751953125,91.1474609375,89.1943359375,88.7548828125,87.2900390625,85.9716796875,85.0439453125,89.1943359375,94.4189453125,97.9833984375,99.7412109375,101.5966796875,103.2080078125,104.3798828125,105.0146484375,104.2333984375,104.7705078125,104.7705078125,103.5986328125,102.9150390625,101.3525390625,99.7412109375,98.7646484375,96.9091796875,95.5419921875,93.6376953125,92.3193359375,91.0986328125,90.2685546875,88.2177734375,87.4365234375,86.5576171875,86.1669921875,92.2216796875,96.5673828125,98.7158203125,101.2548828125,103.7939453125,104.9658203125,106.3330078125,107.0654296875,106.6259765625,106.1865234375,106.5283203125,105.5029296875,104.8681640625,104.2822265625,103.1591796875,101.4501953125,99.8388671875,97.7392578125,96.6162109375,95.2490234375,93.8818359375,92.4169921875,90.7568359375,89.7802734375,88.9990234375,88.5595703125,93.2958984375,97.4951171875,100.0830078125,102.5244140625,104.2333984375,106.7236328125,108.0419921875,107.7490234375,108.5302734375,108.0908203125,108.0419921875,107.1630859375,106.6259765625,105.8935546875,104.0380859375,103.0126953125,101.3037109375,99.7412109375,98.4716796875,97.1533203125,96.5185546875,94.6142578125,93.1494140625,92.4658203125,91.3427734375,90.5126953125,90.6103515625,95.8837890625,98.9599609375,102.2802734375,104.5751953125,105.6005859375,107.7001953125,108.8720703125,109.6044921875,109.3603515625,109.0185546875,109.0673828125,108.8232421875,107.7490234375,106.6259765625,105.3564453125,104.9169921875,102.7685546875,101.1083984375,100.3271484375,98.9599609375,97.6904296875,96.0791015625,94.6142578125,93.6865234375,91.9775390625,91.0498046875,92.7587890625,98.3251953125,100.6201171875,103.1591796875,105.5029296875,107.4072265625,108.8232421875,109.8486328125,110.1904296875,109.5556640625,110.3369140625,109.5556640625,108.9697265625,108.2861328125,106.6748046875,105.4052734375,103.8916015625,102.3291015625,101.0595703125,100.2783203125,98.1298828125,96.4697265625,95.2490234375,93.6376953125,92.9052734375,91.6845703125,91.0986328125,94.2236328125,98.6181640625,100.6689453125,103.5009765625,105.0634765625,107.1630859375,108.8232421875,109.3603515625,110.8251953125,111.0205078125,110.4833984375,109.6044921875,109.1650390625,108.3837890625,107.1630859375,105.6982421875,103.7451171875,101.5966796875,101.0595703125,99.9853515625,98.0810546875,96.5673828125,94.7119140625,93.4912109375,92.7587890625,91.1474609375,90.4638671875,91.1474609375,97.0556640625,99.3994140625,102.7685546875,104.2822265625,105.6494140625,107.7490234375,108.7255859375,109.1650390625,108.1396484375,109.2626953125,108.4814453125,108.0419921875,106.8212890625,106.3818359375,105.1123046875,103.6474609375,101.8896484375,99.7900390625,98.8623046875,97.4462890625,95.4931640625,94.9560546875,93.3935546875,91.6845703125,90.7568359375,89.8291015625,91.5380859375,96.9580078125,99.3017578125,101.6943359375,103.6962890625,105.8935546875,107.2607421875,107.8466796875,108.3349609375,107.5537109375,107.3095703125,107.7001953125,105.7958984375,104.7705078125,103.1591796875,102.2802734375,100.4736328125,99.0087890625,96.8115234375,95.2001953125,93.5888671875,92.7587890625,91.0498046875,89.5361328125,88.5595703125,87.6318359375,86.9970703125,88.7060546875,94.2236328125,97.6416015625,100.8154296875,103.1103515625,104.2333984375,106.2841796875,107.3095703125,108.5302734375,107.6025390625,106.9677734375,106.5771484375,105.9912109375,104.8681640625,103.6962890625,101.8408203125,99.9365234375,98.1298828125,95.6884765625,94.4189453125,92.8076171875,90.8056640625,89.0478515625,86.8017578125,86.1181640625,85.6787109375,84.5556640625,84.3115234375,90.0732421875,95.1025390625,98.0322265625,100.3271484375,102.5732421875,103.9892578125,105.1611328125,105.6494140625,105.1611328125,105.1611328125,104.3798828125,103.2568359375,102.1337890625,101.4013671875,100.2783203125,98.1298828125,96.1279296875,94.6142578125,92.6611328125,91.6845703125,90.8544921875,89.0478515625,87.1435546875,86.3134765625,85.0927734375,83.8232421875,83.9697265625,89.6826171875,94.2724609375,97.6904296875,100.0830078125,101.5478515625,103.5498046875,104.2333984375,104.1845703125,104.5263671875,103.5009765625,103.4521484375,102.1337890625,101.4990234375,99.7412109375,98.5205078125,95.9814453125,94.2236328125,92.0751953125,90.6103515625,90.3173828125,88.8525390625,86.6552734375,84.6533203125,84.1650390625,82.6513671875,81.9189453125,85.3369140625,90.9033203125,94.6142578125,98.2275390625,99.4482421875,102.1337890625,103.1591796875,104.0869140625,104.2333984375,103.1591796875,103.0126953125,102.8662109375,101.1083984375,100.2294921875,99.4970703125,97.2021484375,95.2001953125,93.4423828125,91.9287109375,90.3173828125,88.7548828125,87.8759765625,85.7763671875,84.2626953125,83.3349609375,82.0654296875,83.7744140625,90.6591796875,94.6142578125,97.8369140625,99.5458984375,101.0595703125,102.7197265625,103.4033203125,104.2822265625,103.9892578125,103.1591796875,102.8173828125,101.4013671875,100.6201171875,99.5947265625,98.3740234375,96.6650390625,94.5654296875,93.0029296875,91.9287109375,90.8544921875,90.1708984375,88.7060546875,87.2412109375,86.0205078125,85.9228515625,90.5126953125,95.3955078125,97.9345703125,100.9619140625,102.4755859375,103.9404296875,105.0146484375,105.7958984375,105.6982421875,104.6240234375,105.2587890625,105.0634765625,104.1357421875,103.8427734375,101.8408203125,100.4736328125,98.5693359375,97.5927734375,96.1767578125,94.4677734375,93.5888671875,92.0751953125,90.1708984375,88.9990234375,89.3408203125,93.3935546875,98.6181640625,100.7177734375,103.2568359375,104.7216796875,106.3818359375,107.9443359375,108.4814453125,108.0908203125,107.2607421875,107.5048828125,106.8212890625,105.7470703125,104.3310546875,103.7939453125,101.8408203125,100.3271484375,98.8623046875,97.2998046875,96.5185546875,95.1025390625,93.3447265625,91.9775390625,90.5126953125,90.5126953125,94.7119140625,99.4970703125,101.7431640625,104.1845703125,106.5283203125,108.0419921875,109.7509765625,110.6787109375,110.8740234375,109.9462890625,109.2138671875,108.9697265625,107.8955078125,106.6748046875,105.8935546875,103.8427734375,101.3037109375,100.0830078125,98.2275390625,97.1044921875,95.7373046875,94.0771484375,92.2705078125,91.3427734375,89.9755859375,90.3173828125,96.0791015625,99.9853515625,101.8408203125,104.0380859375,106.3818359375,107.3095703125,108.4814453125,109.3603515625,108.7744140625,107.9443359375,107.5537109375,106.6259765625,106.5771484375,104.7705078125,103.4521484375,101.6943359375,99.6923828125,98.1787109375,97.4462890625,95.9814453125,94.8095703125,93.5888671875,91.5380859375,90.7568359375,89.7802734375,90.5615234375,96.5673828125,99.3994140625,101.5966796875,104.4287109375,106.0888671875,107.7490234375,108.8720703125,108.9697265625,108.4326171875,108.6279296875,107.9443359375,106.5771484375,105.3076171875,104.4287109375,102.7197265625,100.7666015625,99.1552734375,97.7392578125,95.9814453125,95.5908203125,93.1005859375,91.0498046875,89.7314453125,88.5595703125,88.0224609375,88.8037109375,93.4423828125,98.1787109375,101.0107421875,103.5498046875,106.0400390625,107.1630859375,108.3349609375,108.9208984375,109.0185546875,108.9697265625,107.8466796875,106.9189453125,105.9912109375,104.6728515625,103.7451171875,101.8896484375,100.2783203125,98.5205078125,96.1279296875,95.1025390625,93.8330078125,91.7822265625,90.0732421875,88.6572265625,87.6318359375,87.1435546875,88.9501953125,94.3701171875,98.9599609375,101.0595703125,102.9150390625,105.2099609375,106.9677734375,108.2373046875,108.5302734375,108.4326171875,107.8466796875,107.5537109375,106.6748046875,106.0400390625,105.6005859375,103.0126953125,101.5966796875,100.2783203125,98.1298828125,97.3974609375,95.7861328125,94.3701171875,92.4658203125,90.8056640625,90.0244140625,90.4150390625,88.7548828125,91.8798828125,96.8603515625,100.3271484375,103.1591796875,105.4052734375,106.4306640625,107.7001953125,108.5302734375,108.7255859375,108.6279296875,108.5791015625,108.0419921875,107.1630859375,105.7958984375,105.1123046875,103.4521484375,101.6455078125,99.6923828125,98.2763671875,97.2998046875,95.7373046875,93.8330078125,92.5634765625,91.6845703125,90.9033203125,90.7080078125,95.2978515625,100.1806640625,102.1826171875,104.0869140625,106.2841796875,108.1884765625,109.0673828125,109.7021484375,109.6533203125,109.2138671875,108.8720703125,108.2373046875,107.3095703125,105.6005859375,105.3564453125,103.8916015625,101.8896484375,100.2294921875,98.3251953125,97.4462890625,96.1279296875,94.3701171875,93.1982421875,91.7822265625,91.0009765625,92.4169921875,97.6416015625,101.7431640625,103.9404296875,105.9423828125,107.5048828125,109.4091796875,110.8740234375,111.4599609375,110.6298828125,110.5322265625,109.6044921875,109.6044921875,108.9697265625,107.3095703125,105.3564453125,103.0126953125,101.4013671875,100.0341796875,98.2763671875,97.0068359375,95.2001953125,93.4423828125,92.5634765625,91.3427734375,90.6591796875,90.5126953125,95.5419921875,99.4482421875,102.3779296875,105.5029296875,107.1142578125,108.7744140625,109.9951171875,110.2880859375,110.2880859375,109.8974609375,109.5068359375,108.3837890625,107.6513671875,106.4306640625,105.1611328125,103.5009765625,101.4990234375,100.1318359375,98.4716796875,97.2998046875,95.8349609375,94.1748046875,92.8076171875,91.3916015625,90.6591796875,90.0244140625,94.4677734375,98.7646484375,101.3525390625,103.7451171875,104.9658203125,107.3583984375,108.1884765625,109.0185546875,107.8955078125,107.7490234375,107.5048828125,106.5283203125,106.2353515625,104.8193359375,102.9638671875,101.3525390625,99.4970703125,97.3974609375,96.1279296875,95.2001953125,92.9541015625,91.7333984375,90.2197265625,88.7548828125,88.8525390625,90.5126953125,95.6396484375,99.8876953125,101.7919921875,104.2333984375,106.4794921875,107.6025390625,108.3837890625,109.4580078125,108.7255859375,108.4814453125,107.9931640625,107.6513671875,106.0888671875,105.2587890625,103.9892578125,101.8896484375,99.0087890625,97.7880859375,97.0068359375,94.8095703125,93.1005859375,91.8798828125,89.9267578125,88.8525390625,88.6083984375,91.0009765625,96.8603515625
PPG_subj_06,52,M,N,Non-diabetic,120,34.9265,Earlobe,0.185546875,0.185546875,0.185546875,0.185546875,0.185546875,0.185546875,86.2646484375,4.5361328125,4.4873046875,3.5107421875,3.1689453125,3.0712890625,2.7783203125,4.5361328125,6.6357421875,7.0751953125,8.5400390625,10.2001953125,10.2978515625,12.4462890625,11.7138671875,12.3486328125,13.0322265625,12.6416015625,12.3486328125,11.9091796875,11.8115234375,11.3232421875,10.3955078125,9.9072265625,9.9560546875,8.7841796875,8.3935546875,8.2470703125,7.3681640625,6.8310546875,5.4150390625,4.7314453125,5.8544921875,6.9775390625,7.3681640625,8.0029296875,10.2978515625,10.4443359375,10.8349609375,11.5673828125,11.1767578125,11.1279296875,10.4931640625,10.4443359375,9.7607421875,9.6630859375,8.8818359375,8.7353515625,7.6123046875,6.4892578125,6.0498046875,5.4150390625,4.7314453125,3.7060546875,3.0712890625,1.8017578125,1.1669921875,0.9228515625,1.3623046875,2.2900390625,3.6572265625,4.6337890625,5.4638671875,6.4892578125,6.7822265625,7.8076171875,7.1240234375,7.7099609375,7.4658203125,7.2216796875,7.1240234375,6.3427734375,5.9033203125,4.2431640625,3.9501953125,2.8271484375,2.6318359375,2.3388671875,0.4345703125,-0.1513671875,-0.6396484375,-1.7138671875,-2.5927734375,-3.1787109375,-3.8623046875,-3.6181640625,-2.9345703125,-1.7138671875,-0.5419921875,0.3369140625,1.1669921875,1.8017578125,2.8271484375,1.7041015625,2.0458984375,2.5830078125,1.2158203125,1.4599609375,1.0693359375,1.4599609375,0.5810546875,0.2880859375,-0.9326171875,-1.6162109375,-2.3486328125,-3.1298828125,-3.6181640625,-4.4482421875,-4.8876953125,-5.8642578125,-6.3525390625,-7.2314453125,-8.1103515625,-7.3779296875,-5.6689453125,-5.7666015625,-4.3505859375,-3.8623046875,-2.4462890625,-1.1767578125,-1.2255859375,-1.6650390625,-1.6650390625,-1.0791015625,-1.8115234375,-1.3232421875,-1.6162109375,-2.2021484375,-2.6416015625,-3.4716796875,-3.8134765625,-4.0087890625,-5.4248046875,-5.8154296875,-6.4990234375,-6.8896484375,-7.6220703125,-8.5986328125,-9.2822265625,-9.6728515625,-11.4794921875,-11.2353515625,-9.6240234375,-9.8681640625,-8.9404296875,-8.5986328125,-8.2080078125,-7.7197265625,-7.7197265625,-7.3779296875,-8.1591796875,-7.7197265625,-8.3056640625,-8.8427734375,-8.9404296875,-9.4287109375,-10.8935546875,-10.9423828125,-11.6259765625,-12.3095703125,-12.7490234375,-14.0673828125,-14.5556640625,-14.8486328125,-15.3369140625,-16.7529296875,-16.8505859375,-18.0224609375,-18.6083984375,-18.8525390625,-17.8759765625,-17.7294921875,-16.8017578125,-15.2392578125,-15.5810546875,-14.8486328125,-13.9208984375,-13.0908203125,-13.6279296875,-13.8720703125,-13.5302734375,-13.9208984375,-14.2626953125,-14.1162109375,-13.6767578125,-15.3369140625,-14.8974609375,-16.2158203125,-16.6552734375,-16.9970703125,-17.5341796875,-18.0712890625,-18.0712890625,-18.6572265625,-19.3408203125,-20.4150390625,-20.8544921875,-20.7080078125,-18.7060546875,-18.2666015625,-17.8271484375,-16.7041015625,-16.2158203125,-15.1416015625,-13.9697265625,-14.0185546875,-14.3603515625,-13.2861328125,-12.8955078125,-13.1396484375,-13.0419921875,-13.3349609375,-13.7255859375,-13.4326171875,-14.1650390625,-14.5556640625,-14.5556640625,-15.7763671875,-16.0693359375,-16.1181640625,-16.3134765625,-16.5087890625,-17.2900390625,-17.6318359375,-18.0712890625,-16.9482421875,-15.4345703125,-14.5556640625,-13.3837890625,-12.1630859375,-11.1376953125,-10.4541015625,-9.4287109375,-9.4287109375,-9.5263671875,-8.5498046875,-8.7939453125,-8.1591796875,-8.4033203125,-9.3798828125,-8.3544921875,-8.9404296875,-8.7939453125,-8.7939453125,-9.9658203125,-9.9169921875,-10.7958984375,-11.6748046875,-10.7958984375,-12.1630859375,-12.7490234375,-13.0419921875,-12.0166015625,-10.8935546875,-10.8935546875,-9.2333984375,-7.7685546875,-8.0126953125,-6.1083984375,-6.5478515625,-6.4990234375,-4.9853515625,-5.1318359375,-5.4248046875,-5.1318359375,-4.9365234375,-5.8642578125,-5.5712890625,-6.4990234375,-6.7919921875,-7.1826171875,-7.8173828125,-7.3291015625,-8.5498046875,-8.8427734375,-8.9892578125,-9.9658203125,-10.2587890625,-8.8427734375,-7.5732421875,-6.1083984375,-5.3271484375,-3.7158203125,-2.5927734375,-1.5185546875,-0.1513671875,-0.1025390625,0.3369140625,0.3857421875,0.7763671875,0.5810546875,0.3857421875,0.8740234375,0.7275390625,0.2392578125,-0.2001953125,-0.9814453125,-1.1767578125,-1.7626953125,-2.2998046875,-2.2998046875,-2.5439453125,-3.9111328125,-3.7646484375,-2.9833984375,-1.1767578125,-0.7861328125,1.1181640625,2.6318359375,3.4619140625,5.5615234375,6.0009765625,6.0009765625,6.6357421875,7.2705078125,7.4169921875,7.5146484375,7.7587890625,7.0751953125,7.4658203125,7.3193359375,6.5869140625,6.3916015625,6.3916015625,5.3662109375,5.1220703125,4.5361328125,4.1943359375,2.9248046875,2.9248046875,2.8271484375,4.1455078125,5.1708984375,6.2451171875,7.5634765625,8.8818359375,9.4677734375,10.8837890625,11.2744140625,11.5673828125,10.9326171875,11.4697265625,11.2744140625,11.6162109375,10.8349609375,10.4443359375,9.6630859375,9.1259765625,8.4423828125,8.2958984375,7.0263671875,6.5869140625,4.8291015625,4.6826171875,4.0966796875,2.7783203125,1.9970703125,1.8017578125,3.3154296875,3.7060546875,4.4384765625,5.7080078125,6.2451171875,7.3193359375,8.0517578125,8.2958984375,7.3681640625,8.2958984375,7.9052734375,7.3193359375,6.8798828125,5.9521484375,5.5126953125,5.0244140625,4.3408203125,4.0966796875,2.9248046875,1.8505859375,1.0205078125,1.1181640625,-0.2490234375,-1.3232421875,-1.8115234375,-1.9580078125,-3.4716796875,-2.1044921875,-2.0068359375,-1.5185546875,-0.7373046875,0.6787109375,0.9716796875,2.0947265625,3.2666015625,2.9736328125,2.7783203125,3.4130859375,2.4365234375,2.3876953125,2.2900390625,2.1435546875,1.6552734375,1.4599609375,0.5322265625,-0.3466796875,-0.3466796875,-1.3720703125,-2.1044921875,-2.8857421875,-4.1552734375,-4.4482421875,-5.0830078125,-5.7177734375,-6.4990234375,-6.0107421875,-4.8388671875,-4.5947265625,-3.1298828125,-2.5927734375,-2.1533203125,-0.7861328125,-1.2255859375,-0.4443359375,-1.3232421875,-0.8837890625,-1.3720703125,-1.1767578125,-1.1767578125,-2.1044921875,-2.3486328125,-3.3740234375,-3.0810546875,-4.2041015625,-5.8642578125,-5.8154296875,-6.4501953125,-7.5732421875,-8.0126953125,-8.7939453125,-10.4541015625,-10.6494140625,-11.4794921875,-11.3818359375,-10.2587890625,-9.9169921875,-9.7705078125,-8.9404296875,-8.9404296875,-9.0869140625,-7.7197265625,-8.1591796875,-8.4033203125,-8.5009765625,-9.1845703125,-9.5751953125,-9.9658203125,-9.7216796875,-10.8935546875,-11.1865234375,-11.9189453125,-12.3583984375,-12.4560546875,-13.8720703125,-14.1650390625,-14.7509765625,-15.9228515625,-16.2158203125,-16.6064453125,-17.4365234375,-18.2666015625,-17.8271484375,-17.4853515625,-15.9228515625,-14.7998046875,-14.8486328125,-14.1650390625,-13.5791015625,-13.6279296875,-13.8720703125,-13.5791015625,-13.4814453125,-13.6279296875,-13.5791015625,-14.6533203125,-13.9697265625,-14.8974609375,-15.0439453125,-15.7763671875,-16.2646484375,-16.8505859375,-17.1435546875,-17.2900390625,-18.0224609375,-18.1689453125,-19.0966796875,-18.4619140625,-19.8291015625,-19.2431640625,-17.8759765625,-17.0947265625,-16.4599609375,-16.0693359375,-14.4091796875,-14.0185546875,-13.0419921875,-12.9443359375,-12.8955078125,-12.4560546875,-12.6513671875,-11.9677734375,-11.5771484375,-12.0654296875,-11.9189453125,-11.5283203125,-12.4560546875,-12.3583984375,-13.2861328125,-13.6279296875,-13.7744140625,-13.5791015625,-14.3115234375,-15.2392578125,-15.6787109375,-15.5322265625,-14.9462890625,-13.8720703125,-13.2373046875,-13.2373046875,-11.7236328125,-10.8447265625,-10.4541015625,-9.4287109375,-9.3310546875,-8.4521484375,-8.8916015625,-8.9892578125,-8.5986328125,-8.0126953125,-9.1845703125,-9.5263671875,-9.7705078125,-10.3564453125,-10.7958984375,-10.4052734375,-11.3330078125,-11.9189453125,-12.1142578125,-12.8466796875,-12.8955078125,-13.9697265625,-13.0908203125,-11.7724609375,-11.3818359375,-9.3310546875,-8.6962890625,-7.5244140625,-6.7431640625,-5.5224609375,-5.7177734375,-5.8642578125,-4.5458984375,-5.1318359375,-4.9365234375,-5.1318359375,-4.2529296875,-5.1318359375,-4.8388671875,-6.2060546875,-6.4013671875,-6.6455078125,-7.5244140625,-7.7685546875,-7.6220703125,-9.0380859375,-9.1845703125,-9.9658203125,-9.2333984375,-7.4267578125,-6.8408203125,-5.4736328125,-4.6435546875,-3.4716796875,-1.5185546875,-1.0302734375,-0.2490234375,0.4345703125,0.4833984375,1.0693359375,1.5087890625,1.6064453125,0.8251953125,1.0205078125,0.6787109375,0.0927734375,-0.0048828125,-0.1513671875,-1.1767578125,-1.3232421875,-1.4208984375,-1.2744140625,-2.4951171875,-3.2763671875,-2.1533203125,-0.8349609375,0.8740234375,2.2412109375,3.4130859375,4.4384765625,6.1962890625,6.9287109375,7.5634765625,8.1982421875,8.4423828125,8.5888671875,8.1494140625,8.4423828125,8.0029296875,7.9052734375,6.6845703125,6.4892578125,6.4892578125,6.5380859375,5.6103515625,5.4150390625,4.5849609375,4.2919921875,3.8037109375,2.8759765625,3.9013671875,4.6826171875,5.5126953125,6.9775390625,7.4658203125,9.2724609375,9.5166015625,10.6884765625,10.7861328125,11.0302734375,10.8349609375,10.9326171875,10.9326171875,10.2490234375,10.9814453125,9.4189453125,8.6376953125,8.2958984375,8.4423828125,7.1728515625,6.0986328125,5.4150390625,4.9267578125,3.9013671875,3.3154296875,2.3388671875,2.6806640625,4.2919921875,5.0732421875,6.8310546875,8.1005859375,9.1748046875,10.2978515625,12.0556640625,11.4208984375,11.6650390625,11.1767578125,11.4697265625,11.5185546875,10.5908203125,11.0302734375,10.2978515625,9.4677734375,8.6865234375,8.2958984375,7.2216796875,6.3916015625,5.4638671875,4.4384765625,3.9501953125,3.8037109375,2.5341796875,2.2900390625,3.9013671875,4.5361328125,6.4892578125,7.4169921875,8.6865234375,9.5166015625,10.1513671875,11.1279296875,10.4931640625,11.3232421875,11.0302734375,11.1279296875,10.6884765625,10.8837890625,10.6396484375,10.8349609375,10.0048828125,9.1748046875,7.8076171875,7.9541015625,6.7333984375,6.8798828125,6.0009765625,5.0732421875,4.1455078125,3.3642578125,3.5107421875,5.2685546875,5.0732421875,6.5869140625,8.1982421875,8.5888671875,9.7607421875,10.0537109375,9.8583984375,10.2001953125,10.3466796875,10.7861328125,9.2724609375,9.0283203125,9.4189453125,8.5888671875,7.7587890625,6.8310546875,6.3427734375,5.1708984375,4.8779296875,3.0712890625,2.9248046875,1.8017578125,0.8251953125,-0.1513671875,-1.0791015625,-0.6396484375,0.0927734375,0.4833984375,0.6298828125,2.0458984375,2.4853515625,3.5107421875,4.6826171875,3.7060546875,3.5595703125,4.0966796875,3.2666015625,2.9736328125,2.6318359375,2.4365234375,1.4599609375,1.5576171875,-0.0048828125,0.0439453125,-0.8349609375,-1.2744140625,-2.3486328125,-3.1298828125,-3.7646484375,-4.3017578125,-5.9619140625,-6.3525390625,-6.3037109375,-5.7177734375,-5.0341796875,-4.2529296875,-3.1787109375,-2.9345703125,-1.7138671875,-1.3720703125,-1.0791015625,-0.8349609375,-0.5419921875,-0.7861328125,-0.9326171875,-0.7373046875,-1.1279296875,-1.3720703125,-1.7626953125,-2.2021484375,-2.9345703125,-3.8623046875,-3.1298828125,-4.3017578125,-5.0830078125,-5.7177734375,-6.0107421875,-6.3525390625,-7.6708984375,-7.6708984375,-7.6220703125,-6.6943359375,-5.7666015625,-5.2294921875,-3.8134765625,-3.1298828125,-1.7138671875,-1.3720703125,-1.5673828125,-1.0302734375,-1.6162109375,-1.6162109375,-1.9580078125,-1.7138671875,-2.3974609375,-2.3486328125,-2.9345703125,-3.4716796875,-4.2529296875,-4.4970703125,-4.4970703125,-5.5224609375,-6.1572265625,-6.6455078125,-7.1337890625,-7.2314453125,-8.8427734375,-8.1591796875,-7.9150390625,-7.2802734375,-7.2314453125,-5.5712890625,-5.3271484375,-4.4970703125,-4.2529296875,-4.1064453125,-3.6669921875,-3.7158203125,-4.0087890625,-4.3505859375,-3.9599609375,-4.9365234375,-5.2783203125,-5.5712890625,-6.6943359375,-8.0615234375,-7.5244140625,-8.4521484375,-9.0869140625,-9.7216796875,-10.1611328125,-10.7958984375,-11.7236328125,-12.8955078125,-12.7978515625,-10.8935546875,-10.8935546875,-9.7216796875,-9.0380859375,-7.6220703125,-6.6455078125,-5.7666015625,-4.8876953125,-5.1318359375,-4.1064453125,-4.5458984375,-4.0087890625,-4.3505859375,-4.5458984375,-4.5458984375,-4.9853515625,-5.6689453125,-6.0107421875,-6.4501953125,-7.8662109375,-7.9638671875,-8.5986328125,-8.7451171875,-9.3798828125,-10.6005859375,-10.9423828125,-11.6259765625,-9.7216796875,-9.0380859375,-7.8173828125,-6.6943359375,-5.6201171875,-4.5458984375,-3.1298828125,-2.3486328125,-1.6650390625,-0.7861328125,-0.8349609375,-0.6396484375,0.0927734375,-0.3466796875,-0.4931640625,-0.0048828125,-0.7861328125,-1.0791015625,-1.1767578125,-2.0556640625,-2.5439453125,-2.6416015625,-3.8134765625,-3.6181640625,-4.3505859375,-4.7900390625,-6.0107421875,-5.5224609375,-3.5205078125,-2.7392578125,-1.4697265625,-0.3955078125,1.5576171875,2.6318359375,4.1455078125,3.9013671875,4.5361328125,5.7568359375,5.4638671875,5.2685546875,4.9267578125,5.0732421875,4.5361328125,3.4130859375,3.5595703125,3.2666015625,2.7783203125,2.0947265625,1.3134765625,1.0693359375,0.4833984375,-0.4931640625,-1.1279296875,-1.9091796875,-2.5439453125,-1.2744140625,-0.3955078125,0.2392578125,1.3623046875,2.3388671875,3.4619140625,4.3896484375,5.0732421875,4.9755859375,5.3662109375,5.7080078125,4.2919921875,4.3408203125,4.0966796875,4.4873046875,3.7060546875,3.1689453125,3.3154296875,1.8505859375,1.0693359375,0.3369140625,-0.6396484375,-0.4443359375,-1.1279296875,-2.0556640625,-2.8369140625,-3.7646484375,-3.6669921875,-2.9345703125,-1.1767578125,-0.5419921875,0.8740234375,1.6552734375,2.9248046875,4.2919921875,3.9990234375,4.4384765625,4.6826171875,4.8291015625,4.9755859375,4.6826171875,4.9267578125,4.3408203125,3.6572265625,3.3154296875,2.6318359375,2.6318359375,1.5087890625,1.8017578125,0.7763671875,-0.6884765625,-0.7373046875,-1.2255859375,-2.5439453125,-2.6904296875,-2.2509765625,-0.5908203125,0.3369140625,1.1181640625,2.3876953125,3.5595703125,4.1943359375,5.7080078125,5.5615234375,5.1220703125,5.5615234375,5.7568359375,5.6103515625,5.1708984375,4.8291015625,5.0244140625,3.9013671875,3.3154296875,2.8271484375,2.5341796875,1.7529296875,0.6787109375,-0.7861328125,-0.8837890625,-1.3720703125,-2.7880859375,-3.4716796875,-2.8369140625,-1.7626953125,-1.6162109375,-0.4443359375,0.6787109375,0.4345703125,1.4111328125,1.9482421875,1.3623046875,1.8017578125,1.7529296875,1.2646484375,0.9716796875,0.5322265625,-0.2978515625,0.2880859375,-0.2978515625,-1.4208984375,-1.7138671875,-2.9833984375,-3.2763671875,-3.4716796875,-5.2783203125,-5.4248046875,-6.0595703125,-7.1337890625,-7.1826171875,-5.1806640625,-5.2783203125,-4.2041015625,-2.8857421875,-2.2998046875,-0.9326171875,-0.2490234375,0.8251953125,0.2880859375,0.4345703125,0.4345703125,0.4345703125,0.0927734375,-0.0048828125,-0.5419921875,-0.5419921875,-1.7138671875,-2.0556640625,-2.2021484375,-2.4462890625,-3.1298828125,-3.5693359375,-4.2041015625,-4.5458984375,-5.3759765625,-6.6455078125,-5.7666015625,-3.9111328125,-3.1787109375,-1.5673828125,-0.8349609375,0.2392578125,1.5087890625,2.1923828125,3.1201171875,3.0224609375,3.9013671875,4.1455078125,3.9990234375,3.7060546875,3.7548828125,3.5107421875,2.9736328125,2.5341796875,1.7529296875,1.9482421875,1.3134765625,1.1181640625,-0.1025390625,-0.1513671875,-0.7373046875,-1.8115234375,-1.8603515625,-0.5419921875,0.1416015625,0.5322265625,1.8017578125,3.2177734375,4.1455078125,4.9267578125,4.6826171875,5.1708984375,4.9755859375,5.2197265625,4.9267578125,4.8291015625,4.4384765625,3.9013671875,3.3154296875,3.3154296875,1.7529296875,1.8017578125,1.0693359375,0.7275390625,-0.9326171875,-0.7861328125,-1.5673828125,-2.4951171875,-3.3251953125,-2.7880859375,-1.3232421875,-0.2490234375,-0.1513671875,1.1669921875,2.6806640625,3.6572265625,3.9501953125,4.8779296875,4.1943359375,5.1708984375,4.6826171875,4.2919921875,4.3896484375,4.1943359375,4.0478515625,3.0224609375,1.9482421875,1.9970703125,1.8505859375,0.7763671875,-0.2978515625,-0.4931640625,-1.1279296875,-2.4462890625,-2.7392578125,-2.7880859375,-1.8603515625,-1.2744140625,-0.0537109375,1.0205078125,2.4365234375,3.1201171875,4.0478515625,4.9267578125,5.0244140625,5.6591796875,6.5380859375,6.0986328125,6.0986328125,5.9033203125,6.0986328125,5.9033203125,5.6591796875,5.2197265625,4.4384765625,4.0966796875,3.2177734375,2.9248046875,2.8759765625,1.8017578125,1.3623046875,0.2880859375,0.1904296875,1.4111328125,2.4853515625,3.6083984375,4.8291015625,6.0986328125,6.9775390625,7.6611328125,8.1982421875,8.1982421875,8.8330078125,9.5166015625,8.6865234375,8.0517578125,7.5146484375,7.4658203125,6.6845703125,6.1474609375,5.3662109375,5.1708984375,3.9990234375,3.1201171875,2.3388671875,2.3876953125,1.2646484375,-0.2490234375,-1.6650390625,-0.5908203125,0.8740234375,1.8017578125,1.3623046875,3.0224609375,4.2431640625,5.1220703125,5.2197265625,5.2197265625,5.7080078125,5.1708984375,5.2685546875,4.5849609375,5.1220703125,4.9755859375,4.0966796875,3.4130859375,2.4365234375,2.2900390625,1.2158203125,0.5810546875,-0.3955078125,-1.5185546875,-1.9091796875,-2.3486328125,-3.6669921875,-4.3994140625,-2.8857421875,-1.8115234375,-0.7861328125,0.3369140625,1.5576171875,2.8271484375,3.7060546875,4.1455078125,3.9990234375,3.9013671875,4.3408203125,3.8037109375,3.6572265625,3.8525390625,3.6083984375,3.5595703125,2.4853515625,2.6318359375,1.2646484375,0.3857421875,-0.3466796875,-0.8837890625,-1.3232421875,-2.0068359375,-1.8603515625,-3.5205078125,-3.2275390625,-1.5185546875,-0.1513671875,0.5810546875,2.2412109375,3.5595703125,4.1943359375,4.8779296875,5.3173828125,5.3173828125,5.8544921875,5.6591796875,5.8056640625,5.9521484375,5.3173828125,4.6337890625,4.2431640625,3.9990234375,2.7783203125,3.0224609375,1.9482421875,0.5322265625,0.3369140625,-0.3466796875,-0.7861328125,-1.9580078125,-1.3232421875,0.4345703125,0.6298828125,1.4111328125,2.2900390625,2.7783203125,3.8525390625,3.9990234375,4.3408203125,3.6572265625,4.5361328125,3.2666015625,3.0712890625,2.8759765625,2.7783203125,1.9970703125,1.1669921875,0.4345703125,-0.3955078125,-0.6396484375,-2.2021484375,-2.4951171875,-2.9833984375,-3.9599609375,-4.3994140625,-5.9130859375,-6.0595703125,-4.7900390625,-3.6181640625,-2.9345703125,-1.6162109375,-1.1279296875,-0.0048828125,0.8251953125,1.6064453125,1.9970703125,1.7529296875,1.5087890625,0.3369140625,1.4599609375,0.8740234375,0.0439453125,-0.2490234375,-0.7861328125,-1.0791015625,-2.4462890625,-2.9833984375,-3.8623046875,-4.3994140625,-5.3271484375,-5.9619140625,-6.4013671875,-7.2802734375,-6.7919921875,-5.7666015625,-4.6435546875,-3.1787109375,-1.7626953125,-0.9326171875,-0.0048828125,0.4833984375,0.4833984375,1.0205078125,1.3623046875,0.7275390625,0.5322265625,1.0693359375,0.4345703125,0.4345703125,-0.7861328125,-0.5908203125,-0.2490234375,-1.9091796875,-1.6162109375,-2.4951171875,-2.8857421875,-3.8134765625,-4.3017578125,-4.7900390625,-3.5693359375,-2.7392578125,-2.1044921875,-0.6884765625,-0.1025390625,1.4111328125,2.6318359375,3.0224609375,3.1201171875,3.3154296875,3.9501953125,3.4619140625,3.6572265625,3.3154296875,2.6318359375,2.0947265625,1.9970703125,1.2158203125,1.0205078125,0.0439453125,-0.9326171875,-1.3232421875,-2.3486328125,-3.0810546875,-4.0576171875,-3.9111328125,-2.8857421875,-2.1533203125,-1.2255859375,-0.7373046875,-0.0537109375,1.1669921875,1.6064453125,1.9970703125,2.0458984375,2.2412109375,1.8505859375,1.3623046875,0.8251953125,0.4833984375,0.5810546875,-0.2490234375,-0.9326171875,-1.4697265625,-2.3486328125,-2.8857421875,-3.2275390625,-4.1064453125,-4.8876953125,-5.6689453125,-5.9619140625,-5.1318359375,-3.8134765625,-3.3740234375,-1.6162109375,-0.3466796875,0.0439453125,0.6787109375,1.6064453125,2.1435546875,1.7529296875,2.1435546875,1.9970703125,1.4111328125,1.3134765625,1.7041015625,0.6298828125,0.4345703125,-0.3466796875,-0.3466796875,-0.9326171875,-1.4697265625,-2.7880859375,-2.7880859375,-3.2275390625,-4.0576171875,-4.9365234375,-3.3740234375,-2.4951171875,-0.8837890625,0.5810546875,2.4365234375,2.9248046875,3.9013671875,4.6337890625,4.7314453125,4.3896484375,5.1220703125,4.4384765625,4.6826171875,4.9755859375,4.9755859375,3.9501953125,3.0712890625,3.1689453125,2.4853515625,1.6064453125,1.2646484375,0.7275390625,-0.0537109375,-0.6884765625,-1.4208984375,-1.4208984375,0.2392578125,0.6298828125,1.6552734375,2.7294921875,3.3642578125,5.1220703125,5.2197265625,5.5615234375,5.5126953125,5.1220703125,5.2197265625,4.4384765625,4.0966796875,4.0478515625,3.4619140625,2.7294921875,2.2412109375,1.8505859375,0.7275390625,-0.1513671875,-1.1279296875,-1.4697265625,-2.3974609375,-3.2275390625,-3.9111328125,-3.9111328125,-2.3974609375,-2.0556640625,-1.5185546875,0.1416015625,1.6064453125,1.6064453125,3.0224609375,3.3154296875,3.0224609375,2.8271484375,3.1689453125,2.8271484375,2.4853515625,2.4853515625,1.8505859375,1.5576171875,1.2646484375,0.0439453125,-0.7373046875,-1.6650390625,-1.6650390625,-2.7392578125,-3.5693359375,-4.6923828125,-5.3271484375,-4.8876953125,-3.9111328125,-2.7392578125,-1.9580078125,-0.9326171875,0.4345703125,1.0205078125,1.8017578125,2.5341796875,2.3876953125,2.5830078125,2.9736328125,2.8271484375,2.8271484375,2.7783203125,2.5341796875,1.7529296875,0.7275390625,0.7275390625,-0.0537109375,-0.4931640625,-0.6884765625,-2.0068359375,-2.1533203125,-2.7880859375,-3.3740234375,-3.5205078125,-2.2021484375,-1.3232421875,0.0927734375,1.1669921875,1.6552734375,3.7060546875,3.5595703125,3.1689453125,3.5595703125,3.2177734375,3.8037109375,3.8037109375,3.4619140625,3.2666015625,2.4365234375,2.2900390625,1.1669921875,1.0693359375,0.2392578125,-1.1767578125,-1.5185546875,-1.9580078125,-2.4951171875,-4.5947265625,-4.5947265625,-5.5224609375,-4.5947265625,-4.0576171875,-3.4228515625,-1.8115234375,-1.5185546875,-1.5185546875,-0.4443359375,-1.2255859375,-0.3466796875,-0.4931640625,-0.1025390625,-0.9326171875,-1.0791015625,-0.9814453125,-2.2998046875,-2.4951171875,-3.5693359375,-3.3251953125,-4.7900390625,-5.4248046875,-6.1572265625,-7.0849609375,-8.2080078125,-8.8916015625,-9.3798828125,-9.7705078125,-9.5263671875,-8.5009765625,-8.0615234375,-6.5478515625,-5.8154296875,-4.6923828125,-4.3994140625,-3.3251953125,-3.0810546875,-3.8134765625,-2.5927734375,-3.4716796875,-3.0322265625,-3.3251953125,-3.6669921875,-3.5693359375,-4.3017578125,-4.2041015625,-5.1318359375,-5.9619140625,-6.2060546875,-6.8408203125,-7.2802734375,-8.0126953125,-8.5986328125,-10.0146484375,-9.3310546875,-8.5009765625,-7.5732421875,-6.2060546875,-4.2529296875,-4.2041015625,-2.7392578125,-1.7626953125,-1.3232421875,-1.3232421875,-0.6884765625,-0.0537109375,-0.1513671875,0.1904296875,-0.3955078125,-0.1025390625,-0.6396484375,-0.9326171875,-1.4697265625,-1.5185546875,-1.7626953125,-3.3740234375,-2.9833984375,-4.1552734375,-4.4970703125,-5.3759765625,-6.1083984375,-4.4482421875,-2.7392578125,-3.1787109375,-1.6162109375,-0.9814453125,-0.2490234375,1.2646484375,1.6064453125,0.9228515625,1.2158203125,1.6064453125,1.6064453125,1.2158203125,1.4111328125,0.2880859375,-0.2490234375,-0.5908203125,-1.1279296875,-1.5673828125,-2.4462890625,-2.9345703125,-3.6669921875,-3.8134765625,-5.2783203125,-5.2783203125,-5.5712890625,-3.7158203125,-2.7392578125,-1.4697265625,-0.2001953125,1.5087890625,2.1435546875,2.9248046875,3.7548828125,3.4619140625,4.3896484375,3.6083984375,3.2666015625,3.9501953125,3.4619140625,3.1689453125,2.1435546875,1.9482421875,1.8505859375,0.9228515625,0.7763671875,-0.3466796875,-1.1279296875,-1.7626953125,-2.5927734375,-2.8857421875,-1.5673828125,-0.1025390625,1.7041015625,3.0224609375,5.0244140625,6.4892578125,7.7587890625,8.1982421875,8.7841796875,9.1748046875,9.1748046875,9.8095703125,9.3701171875,9.6630859375,10.0048828125,9.1259765625,8.9306640625,7.9541015625,7.5634765625,7.1728515625,6.5380859375,6.4404296875,5.7080078125,4.8291015625,3.9013671875,4.3408203125,6.4892578125,6.4892578125,8.1494140625,9.6142578125,10.8349609375,12.1533203125,13.3740234375,14.2529296875,13.7646484375,14.3505859375,14.2041015625,13.9111328125,13.6181640625,12.7880859375,12.6416015625,12.2998046875,11.1279296875,10.7861328125,9.8095703125,9.6630859375,7.8076171875,7.1728515625,6.8310546875,5.8544921875,4.6826171875,3.5595703125,4.6337890625,5.9521484375,6.8798828125,7.7099609375,8.7353515625,9.6630859375,10.8349609375,10.7373046875,11.1279296875,10.7373046875,10.5908203125,10.6396484375,9.7119140625,10.1513671875,9.8583984375,8.7841796875,7.9541015625,7.3681640625,6.4892578125,5.7568359375,4.3896484375,4.1455078125,3.4130859375,2.2412109375,1.5087890625,1.3623046875,-0.2978515625,0.8740234375,1.4599609375,2.6806640625,3.1689453125,4.2919921875,4.9267578125,6.4892578125,6.3916015625,7.6123046875,6.5380859375,7.0751953125,7.0263671875,6.5869140625,6.1962890625,6.6845703125,5.8056640625,4.8291015625,4.5849609375,3.3154296875,2.8271484375,2.1435546875,1.8505859375,0.5810546875,-0.2978515625,-0.8349609375,-1.5185546875,-2.1044921875,-2.1044921875,-0.5419921875,-0.2490234375,1.1669921875,2.6318359375,2.2900390625,3.9501953125,5.6591796875,6.8310546875,7.1728515625,7.3193359375,8.2470703125,8.0029296875,7.6611328125,7.6123046875,6.8798828125,6.2451171875,6.0498046875,5.0244140625,3.7548828125,3.0712890625,2.4365234375,1.5576171875,0.7275390625,-0.0048828125,-1.4697265625,-1.6650390625,-4.0576171875,-2.3974609375,-2.2509765625,-1.3232421875,-0.8837890625,-0.0537109375,0.4345703125,0.3369140625,1.2158203125,0.4833984375,1.2158203125,0.8740234375,0.6298828125,0.2392578125,0.1416015625,-0.1513671875,-1.4208984375,-1.4697265625,-2.5927734375,-3.5693359375,-4.3994140625,-4.9365234375,-6.0595703125,-6.8408203125,-7.7197265625,-8.0126953125,-8.6474609375,-9.6240234375,-8.2080078125,-7.7197265625,-7.2314453125,-6.9384765625,-5.3759765625,-5.0830078125,-4.7412109375,-3.8134765625,-3.8623046875,-3.9111328125,-3.7158203125,-4.0576171875,-4.2041015625,-4.0087890625,-4.3505859375,-4.6435546875,-5.0341796875,-6.1083984375,-5.8154296875,-5.6201171875,-7.1337890625,-7.2802734375,-8.4033203125,-8.3544921875,-8.6474609375,-9.5263671875,-10.6005859375,-9.2822265625,-8.0126953125,-7.3779296875,-6.4013671875,-5.2294921875,-4.1552734375,-2.9345703125,-1.9580078125,-1.9580078125,-1.6650390625,-1.9580078125,-2.0068359375,-2.2021484375,-1.5673828125,-2.1533203125,-2.7880859375,-2.6416015625,-3.2763671875,-3.8134765625,-4.3017578125,-4.5947265625,-5.2783203125,-5.9619140625,-5.7666015625,-7.3291015625,-7.7197265625,-7.5732421875,-6.4501953125,-5.9619140625,-5.2294921875,-4.5458984375,-3.4228515625,-2.6904296875,-2.4462890625,-1.5185546875,-1.8603515625,-1.1767578125,-2.0556640625,-2.0068359375,-1.5673828125,-2.2509765625,-2.2998046875,-2.5927734375,-3.1787109375,-4.1064453125,-4.5458984375,-5.3759765625,-5.8154296875,-6.5478515625,-7.0361328125,-7.9150390625,-8.8916015625,-9.0380859375,-7.9150390625,-6.6455078125,-6.0595703125,-4.7900390625,-3.4716796875,-1.9580078125,-1.4208984375,-0.5419921875,-0.2001953125,-0.7373046875,-0.0048828125,-0.5908203125,0.0927734375,-0.7373046875,-0.0537109375,-1.1279296875,-1.0791015625,-1.4697265625,-2.1533203125,-3.4716796875,-3.5205078125,-4.2529296875,-4.6435546875,-4.9365234375,-5.3271484375,-6.3037109375,-5.2783203125,-3.8623046875,-2.2998046875,-1.8115234375,0.3857421875,1.6552734375,3.1689453125,3.8525390625,4.3408203125,4.4384765625,4.9267578125,5.7080078125,5.1708984375,5.3173828125,5.1708984375,4.7802734375,4.7314453125,3.8525390625,3.4130859375,3.1689453125,2.8759765625,1.8505859375,1.5576171875,0.7763671875,-0.4931640625,-0.8349609375,0.1416015625,1.5087890625,2.0947265625,3.0224609375,4.6826171875,5.7080078125,6.8798828125,7.5634765625,7.8564453125,7.6123046875,7.8564453125,7.8564453125,7.6611328125,7.4169921875,7.3193359375,5.6591796875,5.7568359375,4.4384765625,3.7548828125,3.1201171875,2.3876953125,1.1669921875,0.7763671875,-0.1025390625,-0.9326171875,-1.6162109375,-0.8837890625,-0.2001953125,1.5087890625,2.1435546875,3.3642578125,4.6826171875,5.0732421875,5.7568359375,4.7314453125,5.6591796875,5.2197265625,4.5849609375,4.4873046875,4.4384765625,3.8525390625,3.3154296875,3.1689453125,2.9248046875,2.0458984375,1.0693359375,0.3369140625,-0.6396484375,-0.7373046875,-1.9580078125,-2.3486328125,-3.6669921875,-2.0556640625,-1.5673828125,0.4345703125,0.9228515625,0.9716796875,3.1201171875,3.7548828125,3.8037109375,4.7802734375,4.5361328125,4.6826171875,4.6826171875,4.6826171875,4.2431640625,4.0966796875,3.6572265625,3.1689453125,2.4853515625,2.2412109375,0.8251953125,1.0205078125,-0.0537109375,0.0439453125,-1.3232421875,-2.0068359375,-2.4462890625,-1.3720703125,-0.3955078125,0.6787109375,2.5830078125,3.1201171875,3.8037109375,4.7314453125,5.6103515625,5.8056640625,5.7080078125,6.4404296875,5.9033203125,5.5615234375,5.3173828125,4.5361328125,4.4384765625,3.9990234375,3.6083984375,2.5341796875,2.2900390625,1.4111328125,0.2392578125,-0.3955078125,-1.6650390625,-2.4462890625,-3.7158203125,-2.9833984375,-1.6650390625,-0.7373046875,-0.3466796875,0.4345703125,0.7275390625,1.8994140625,2.3876953125,2.5830078125,1.9970703125,1.9482421875,1.6552734375,2.1435546875,1.3134765625,0.9716796875,0.7763671875,-0.1025390625,-1.3720703125,-1.5185546875,-1.7138671875,-3.2763671875,-3.5693359375,-4.2041015625,-4.6435546875,-6.0107421875,-6.8408203125,-7.1826171875,-5.9130859375,-5.0830078125,-4.2529296875,-3.0810546875,-2.0068359375,-1.1279296875,-0.2978515625,0.0927734375,-0.2490234375,0.1904296875,0.3369140625,0.1904296875,-0.1025390625,-0.2490234375,-0.4931640625,-0.9326171875,-1.7626953125,-2.8369140625,-3.0322265625,-2.8857421875,-4.0576171875,-4.7900390625,-5.1806640625,-6.0595703125,-6.4990234375,-6.8408203125,-6.6455078125,-5.1318359375,-4.1552734375,-3.1298828125,-1.9580078125,-0.8837890625,-0.0048828125,1.1669921875,2.0458984375,1.8017578125,1.9970703125,2.3876953125,2.2900390625,2.2900390625,2.3876953125,2.4365234375,2.0458984375,1.6552734375,1.3623046875,0.5322265625,0.0439453125,-0.7373046875,-1.3232421875,-2.0556640625,-2.8857421875,-3.1787109375,-4.3505859375,-3.0322265625,-2.0556640625,-2.5439453125,-1.1279296875,1.0205078125,1.4111328125,1.9970703125,2.9248046875,2.3388671875,2.3388671875,2.5830078125,2.7294921875,2.4365234375,2.1435546875,1.8505859375,1.1181640625,1.2646484375,0.3857421875,-0.1025390625,-0.7373046875,-1.9580078125,-2.0556640625,-2.8857421875,-3.1787109375,-4.3994140625,-5.1318359375,-5.1806640625,-4.0576171875,-2.5927734375,-2.5927734375,-1.2744140625,0.0927734375,1.6552734375,2.5830078125,3.5595703125,3.7060546875,4.0478515625,3.7548828125,3.2666015625,3.5595703125,3.7548828125,3.7060546875,3.2177734375,2.0947265625,1.7041015625,1.5087890625,0.2392578125,-0.2490234375,-0.9326171875,-1.6650390625,-2.2509765625,-3.0810546875,-3.4716796875,-2.3974609375,-0.5908203125,0.2880859375,1.2646484375,3.6572265625,4.3408203125,4.7802734375,6.0498046875,7.1240234375,7.5146484375,7.8564453125,7.4658203125,7.8564453125,7.4658203125,7.7099609375,7.6123046875,7.1728515625,6.9775390625,6.2939453125,5.8544921875,5.2197265625,4.7802734375,4.2431640625,2.9248046875,1.8994140625,2.2900390625,0.8740234375,0.6787109375,2.5341796875,3.3154296875,4.2431640625,5.6591796875,7.0751953125,7.8564453125,9.0771484375,9.2724609375,8.8330078125,9.7607421875,9.8583984375,9.4677734375,8.7841796875,8.6376953125,8.1005859375,6.9287109375,6.2451171875,5.0244140625,4.6337890625,3.6572265625,2.7783203125,2.3876953125,2.2900390625,0.9716796875,-0.2490234375,-0.5908203125,-1.0791015625,1.1181640625,0.9716796875,1.8505859375,2.6806640625,3.5595703125,4.6337890625,5.2685546875,5.6591796875,5.7080078125,5.4638671875,5.3173828125,5.2197265625,5.3173828125,4.7314453125,3.9013671875,3.1689453125,2.8271484375,2.0947265625,1.3134765625,0.1904296875,-0.6884765625,-1.0302734375,-1.2744140625,-1.2255859375,-3.0810546875,-3.8134765625,-3.8623046875,-2.7880859375,-2.0068359375,-0.9326171875,-0.1513671875,0.7763671875,2.0947265625,3.0224609375,3.6572265625,3.4130859375,3.9990234375,3.7548828125,3.6083984375,4.4384765625,3.7548828125,3.0712890625,3.2666015625,1.8994140625,1.2158203125,1.5576171875,0.6787109375,-0.0048828125,-0.9326171875,-1.3720703125,-2.0556640625,-3.1298828125,-3.5205078125,-3.5205078125,-1.6650390625,-1.4208984375,-0.4443359375,1.2158203125,2.4365234375,3.7060546875,4.6337890625,5.0244140625,4.8779296875,4.8291015625,5.5615234375,5.4150390625,5.0244140625,3.9013671875,4.1943359375,3.9013671875,3.1201171875,2.2900390625,1.4111328125,0.7275390625,0.2880859375,-0.2490234375,-1.2744140625,-2.0556640625,-3.6669921875,-4.3994140625,-5.0830078125,-3.1298828125,-3.1298828125,-2.0556640625,-1.6650390625,-1.0302734375,0.2880859375,0.7763671875,0.8251953125,1.4599609375,1.8994140625,1.7529296875,1.5087890625,0.9228515625,1.0693359375,-0.2490234375,-0.2978515625,-1.4697265625,-1.9091796875,-2.3486328125,-3.2763671875,-4.3017578125,-5.4736328125,-5.0830078125,-5.8154296875,-6.7431640625,-8.0126953125,-8.6962890625,-8.0615234375,-6.9384765625,-6.4013671875,-4.5947265625,-3.8623046875,-2.9833984375,-2.4462890625,-0.9326171875,-0.3466796875,-0.7373046875,0.2880859375,-0.6396484375,-0.2490234375,-0.4443359375,-0.5419921875,-0.8349609375,-1.4208984375,-2.0556640625,-2.3486328125,-2.5927734375,-3.8623046875,-3.9599609375,-4.3994140625,-5.2294921875,-5.4736328125,-6.1083984375,-7.2802734375,-7.3779296875,-5.2294921875,-4.6435546875,-3.4228515625,-2.4462890625,-2.1044921875,-0.2490234375,-0.4931640625,0.5322265625,0.6298828125,0.7763671875,0.2880859375,0.3369140625,0.7763671875,0.6298828125,-0.0537109375,-0.1025390625,-0.5908203125,-1.2255859375,-2.1533203125,-1.8115234375,-3.2275390625,-3.6181640625,-4.7412109375,-4.8388671875,-6.4990234375,-7.4755859375,-8.1103515625,-7.9638671875,-6.5966796875,-5.9619140625,-5.2294921875,-4.8388671875,-3.3251953125,-2.7392578125,-2.2021484375,-2.4462890625,-2.4462890625,-2.4462890625,-2.2021484375,-2.7392578125,-2.7392578125,-2.6904296875,-4.2041015625,-4.3994140625,-4.9365234375,-5.8642578125,-6.4013671875,-7.6220703125,-7.5732421875,-9.2822265625,-9.0869140625,-9.9658203125,-10.7470703125,-11.3330078125,-12.3583984375,-11.0888671875,-10.8447265625,-9.3310546875,-8.4033203125,-7.8173828125,-7.0361328125,-5.9619140625,-5.4736328125,-5.1318359375,-4.9853515625,-4.4970703125,-4.6923828125,-4.7900390625,-5.3759765625,-5.3271484375,-6.0107421875,-5.9619140625,-6.8896484375,-7.4755859375,-7.4755859375,-8.5009765625,-8.6962890625,-9.1845703125,-9.6240234375,-10.3076171875,-10.4541015625,-11.2841796875,-9.5751953125,-9.2333984375,-7.3779296875,-6.2060546875,-5.0341796875,-4.3017578125,-1.9091796875,-1.6650390625,-1.3720703125,-1.1767578125,-0.6884765625,-0.5908203125,-0.6396484375,-0.7373046875,-0.6884765625,-0.3955078125,-1.0302734375,-1.7138671875,-2.0556640625,-2.4951171875,-2.7392578125,-3.4716796875,-4.5458984375,-4.4482421875,-4.5947265625,-5.4248046875,-5.3759765625,-3.6669921875,-2.8369140625,-2.3486328125,-0.3466796875,1.0693359375,1.8017578125,2.3876953125,2.4853515625,2.6318359375,2.3388671875,2.7294921875,2.2412109375,2.0947265625,1.9482421875,1.4599609375,0.4345703125,0.1416015625,-0.0537109375,-0.8349609375,-1.6650390625,-2.2021484375,-3.2275390625,-3.3740234375,-4.5947265625,-4.9365234375,-5.5224609375,-4.2041015625,-3.5205078125,-2.2998046875,-1.6162109375,-0.2978515625,1.0693359375,1.5576171875,1.8017578125,1.9970703125,2.4853515625,3.4619140625,2.5830078125,2.9736328125,2.3876953125,2.0947265625,1.9482421875,0.3857421875,-0.2490234375,-0.5419921875,-1.2255859375,-2.0556640625,-2.7392578125,-3.6181640625,-4.4482421875,-4.8388671875,-4.1064453125,-2.8857421875,-1.4208984375,-1.0791015625,0.6298828125,1.6064453125,3.4619140625,4.2431640625,5.0732421875,5.5126953125,6.0009765625,5.7080078125,5.9521484375,6.1474609375,5.2197265625,5.3173828125,4.3408203125,4.0966796875,3.4130859375,2.9736328125,2.2900390625,1.9482421875,1.3134765625,1.1181640625,0.7275390625,-0.8349609375,-0.7373046875,0.3369140625,1.9482421875,2.9736328125,3.5595703125,5.2685546875,6.2939453125,7.3681640625,8.1494140625,7.8564453125,8.6376953125,7.9052734375,7.9541015625,7.3193359375,7.2705078125,7.0751953125,5.9521484375,6.3427734375,5.1220703125,4.8291015625,2.8759765625,2.1923828125,1.5576171875,1.2158203125,-0.2978515625,-0.5908203125,-2.2998046875,-1.4697265625,-0.9814453125,0.6298828125,0.6298828125,1.4599609375,2.5830078125,4.0478515625,3.9990234375,4.2431640625,4.5361328125,4.0478515625,3.7548828125,3.9990234375,3.3154296875,3.3154296875,2.5341796875,1.5087890625,0.7275390625,0.5810546875,0.0439453125,-1.0791015625,-2.1044921875,-3.1298828125,-4.0087890625,-4.4482421875,-5.6689453125,-5.5224609375,-4.4482421875,-3.8134765625,-2.7392578125,-1.5673828125,-0.5419921875,0.4345703125,1.5087890625,1.2158203125,1.2646484375,1.1181640625,1.3623046875,0.8740234375,0.6298828125,0.5810546875,0.0927734375,-0.4443359375,-0.8349609375,-1.8603515625,-2.0068359375,-3.0810546875,-3.3251953125,-4.1064453125,-4.1064453125,-4.7900390625,-6.0595703125,-6.2548828125,-6.3525390625,-4.8388671875,-3.4716796875,-3.2763671875,-1.8115234375,-0.8837890625,0.3369140625,0.7275390625,0.9716796875,0.3369140625,0.6787109375,1.8505859375,1.4599609375,1.1669921875,0.9228515625,0.7275390625,-0.2001953125,-0.2001953125,-1.6162109375,-2.2021484375,-3.1298828125,-4.0576171875,-4.8388671875,-5.5712890625,-6.8408203125,-7.0361328125,-8.5986328125,-8.5498046875,-7.7197265625,-6.7431640625,-6.1572265625,-5.4248046875,-5.1318359375,-3.4716796875,-3.3740234375,-3.1787109375,-3.5205078125,-3.2763671875,-3.9111328125,-4.1552734375,-4.4970703125,-4.4482421875,-4.8388671875,-6.0107421875,-5.5224609375,-7.4755859375,-7.5732421875,-8.3056640625,-8.7939453125,-10.2099609375,-11.0400390625,-11.4306640625,-12.3583984375,-12.6025390625,-13.2861328125,-11.6259765625,-10.9912109375,-9.8193359375,-8.7451171875,-8.5986328125,-7.9150390625,-6.9384765625,-7.2802734375,-7.5732421875,-6.9384765625,-6.9873046875,-7.0361328125,-7.1826171875,-7.1826171875,-7.4267578125,-8.1591796875,-8.2080078125,-9.0380859375,-9.3798828125,-9.5263671875,-10.4541015625,-11.3818359375,-11.8212890625,-11.9677734375,-12.9443359375,-12.5537109375,-11.1865234375,-9.8193359375,-10.3564453125,-8.5498046875,-7.7685546875,-6.4013671875,-5.4248046875,-5.2294921875,-5.1318359375,-5.0341796875,-4.4482421875,-4.7900390625,-5.0341796875,-5.3759765625,-5.0830078125,-5.8154296875,-6.0107421875,-6.4501953125,-6.3525390625,-7.7197265625,-7.7685546875,-8.5498046875,-9.3798828125,-9.4775390625,-10.5029296875,-10.6494140625,-9.1845703125,-8.9404296875,-8.5498046875,-8.0126953125,-6.6455078125,-5.8642578125,-5.4736328125,-4.8876953125,-5.2783203125,-4.7900390625,-5.6201171875,-5.8642578125,-6.0595703125,-6.6455078125,-7.0849609375,-6.9873046875,-8.1103515625,-8.3544921875,-8.9892578125,-9.8681640625,-9.8681640625,-10.7470703125,-11.6259765625,-12.0654296875,-12.7978515625,-10.6494140625,-9.9169921875,-9.2822265625,-8.5498046875,-7.0849609375,-5.7177734375,-5.7666015625,-5.2783203125,-5.0341796875,-5.6689453125,-4.5947265625,-5.0341796875,-5.2294921875,-5.2294921875,-5.1806640625,-5.2783203125,-5.9619140625,-6.7431640625,-6.9384765625,-8.1591796875,-8.4033203125,-8.7451171875,-9.1357421875,-10.1611328125,-9.8681640625,-8.5009765625,-8.0615234375,-6.2548828125,-5.0830078125,-3.6669921875,-2.3486328125,-0.4931640625,-0.3466796875,-0.2978515625,0.5810546875,0.8251953125,0.7275390625,0.6298828125,0.7275390625,0.6298828125,0.1904296875,-0.1513671875,-0.9814453125,-1.0791015625,-1.5673828125,-2.6416015625,-2.9833984375,-3.8134765625,-4.4482421875,-4.0576171875,-2.1533203125,-1.3720703125,0.4833984375,1.7041015625,2.4365234375,3.2666015625,3.9990234375,4.5361328125,4.7802734375,4.8291015625,5.5615234375,5.2197265625,4.9755859375,5.2197265625,4.1455078125,3.8525390625,3.2666015625,2.8759765625,1.9482421875,1.3134765625,0.8740234375,0.0439453125,-1.1767578125,-2.1533203125,-0.6884765625,0.0439453125,1.0693359375,1.7529296875,3.1201171875,4.2919921875,5.3173828125,5.6103515625,5.9033203125,6.0009765625,6.5869140625,6.1474609375,6.7822265625,5.8544921875,5.5615234375,4.7314453125,4.4384765625,3.8525390625,2.8271484375,1.8017578125,1.2646484375,0.9228515625,-0.3466796875,-0.6396484375,-2.1044921875,-0.6396484375,1.0693359375,1.7529296875,3.7548828125,4.7802734375,5.7080078125,7.2705078125,8.3447265625,8.2470703125,8.6376953125,9.1748046875,9.0771484375,9.0283203125,8.9794921875,9.2724609375,8.8818359375,7.2705078125,7.1728515625,6.5869140625,5.9521484375,4.9755859375,5.1220703125,3.4619140625,3.0712890625,2.1923828125,3.8525390625,5.2197265625,6.5380859375,8.0029296875,9.3212890625,10.5419921875,12.0068359375,12.3974609375,12.2509765625,12.2998046875,12.9345703125,12.2021484375,11.6162109375,11.5185546875,11.3720703125,10.8837890625,9.9072265625,9.2724609375,8.2470703125,7.7587890625,6.8310546875,6.0986328125,5.2197265625,4.8291015625,3.5107421875,4.5849609375,5.1220703125,6.2939453125,7.0263671875,8.1494140625,9.0771484375,9.4189453125,10.2978515625,9.2724609375,9.6142578125,9.2724609375,9.0771484375,8.3935546875,8.1982421875,7.6123046875,7.4658203125,6.4892578125,5.5126953125,4.6826171875,3.6083984375,3.3154296875,2.9736328125,1.2158203125,0.9228515625,-0.3466796875,-0.2001953125,1.0205078125,1.8505859375,3.2177734375,4.1455078125,4.8779296875,5.8544921875,6.6845703125,7.1728515625,6.9287109375,6.6845703125,7.1728515625,6.0498046875,6.3916015625,6.2451171875,5.3662109375,5.0244140625,4.0478515625,3.2666015625,2.4853515625,2.0458984375,1.2158203125,0.9716796875,-0.2490234375,-1.1767578125,-1.9580078125,-1.1767578125,-0.0537109375,0.9228515625,2.0947265625,3.0712890625,3.9990234375,5.6591796875,6.0498046875,7.4169921875,6.2451171875,6.5869140625,6.7822265625,6.3916015625,6.5869140625,5.9521484375,6.2451171875,5.8544921875,4.5849609375,4.1943359375,3.6083984375,2.3876953125,1.4111328125,1.0693359375,0.1904296875,-0.4931640625,-1.3232421875,-1.5185546875,-0.1025390625,0.5810546875,1.1669921875,2.7294921875,2.5341796875,3.7060546875,4.4384765625,4.2919921875,3.1201171875,3.9013671875,3.3154296875,2.9248046875,2.6318359375,2.3876953125,1.8017578125,0.7763671875,0.0927734375,-0.2978515625,-1.4208984375,-2.2509765625,-3.2275390625,-3.9599609375,-4.3505859375,-5.3271484375,-6.6943359375,-6.8408203125,-5.2783203125,-4.6923828125,-4.2529296875,-2.3486328125,-2.5927734375,-1.6650390625,-0.5419921875,-0.5908203125,-1.5185546875,-0.8837890625,-0.8349609375,-1.5185546875,-2.0068359375,-1.7138671875,-2.3974609375,-3.5693359375,-4.1552734375,-4.8876953125,-5.1318359375,-5.4736328125,-6.8408203125,-7.9150390625,-8.0615234375,-8.5009765625,-9.8193359375,-11.0400390625,-9.5263671875,-9.3798828125,-8.5498046875,-6.6943359375,-6.1572265625,-5.2783203125,-3.6181640625,-3.6669921875,-3.7646484375,-3.6181640625,-2.4462890625,-3.2275390625,-3.3251953125,-3.2275390625,-3.2275390625,-3.5205078125,-4.3994140625,-4.8876953125,-5.5712890625,-6.0595703125,-6.5478515625,-7.0361328125,-7.3291015625,-8.3544921875,-8.6474609375,-10.1611328125,-9.8193359375,-7.6708984375,-7.2314453125,-6.6943359375,-5.0830078125,-4.6435546875,-2.4462890625,-2.6904296875,-2.1044921875,-2.3974609375,-1.7138671875,-2.2509765625,-2.1533203125,-2.1533203125,-2.1533203125,-2.5927734375,-3.6181640625,-3.4716796875,-4.7900390625,-5.5224609375,-6.1083984375,-6.2060546875,-7.4755859375,-8.2080078125,-9.2822265625,-9.9169921875,-9.4287109375,-8.3544921875,-8.0126953125,-6.7919921875,-6.0107421875,-4.9853515625,-4.7900390625,-3.2763671875,-3.9599609375,-3.9599609375,-3.9599609375,-4.2529296875,-4.2041015625,-4.6923828125,-4.9853515625,-5.6201171875,-6.4013671875,-7.2314453125,-7.6220703125,-7.4755859375,-8.4033203125,-9.2822265625,-10.3076171875,-11.3330078125,-12.1142578125,-12.3583984375,-11.4794921875,-9.9169921875,-9.3310546875,-7.9150390625,-6.8896484375,-6.2548828125,-5.0830078125,-4.9365234375,-4.4970703125,-4.3994140625,-4.9365234375,-5.1806640625,-4.9365234375,-5.5224609375,-4.8388671875,-5.9619140625,-6.3037109375,-6.5966796875,-6.9384765625,-7.7685546875,-8.1591796875,-8.9892578125,-9.2822265625,-9.8193359375,-10.7470703125,-11.5771484375,-10.0634765625,-8.4033203125,-7.3779296875,-5.7666015625,-5.4248046875,-4.1064453125,-3.0810546875,-2.0556640625,-2.1533203125,-1.5673828125,-1.3720703125,-1.6650390625,-1.3720703125,-1.5673828125,-2.0068359375,-2.6416015625,-2.6904296875,-3.0810546875,-3.3251953125,-4.3994140625,-4.7412109375,-5.4248046875,-5.8642578125,-6.8896484375,-7.4755859375,-8.5009765625,-6.6455078125,-6.2548828125,-5.2294921875,-4.3994140625,-3.9111328125,-3.1787109375,-1.8115234375,-1.6650390625,-2.2509765625,-1.5673828125,-1.9091796875,-2.1044921875,-2.8857421875,-2.6416015625,-3.9111328125,-3.8134765625,-4.2529296875,-5.6201171875,-5.5712890625,-6.7431640625,-8.0126953125,-8.1591796875,-8.3056640625,-9.1357421875,-9.9658203125,-9.9169921875,-9.2333984375,-8.9404296875,-7.3291015625,-6.2060546875,-4.6435546875,-4.7412109375,-3.3251953125,-3.0810546875,-4.3505859375,-3.2763671875,-3.3251953125,-3.6181640625,-4.3994140625,-4.3017578125,-4.7900390625,-4.8876953125,-5.3759765625,-6.4501953125,-6.8896484375,-7.4267578125,-7.7197265625,-8.9892578125,-9.9169921875,-10.8447265625,-11.0400390625,-10.8935546875,-9.7705078125,-8.5498046875,-6.8408203125,-5.6689453125,-4.6435546875,-3.1298828125,-2.2998046875,-1.6650390625,-1.4697265625,-1.2744140625,-0.6396484375,-0.4931640625,-0.4931640625,-0.7373046875,-1.5673828125,-1.3232421875,-1.9580078125,-2.5439453125,-2.7880859375,-3.6181640625,-4.0576171875,-4.3994140625,-5.2294921875,-5.7666015625,-6.8896484375,-5.7666015625,-4.3994140625,-3.4228515625,-1.2255859375,-0.8837890625,0.2880859375,1.5576171875,2.5341796875,1.7041015625,1.9970703125,1.8994140625,2.0458984375,1.7041015625,1.7041015625,0.9716796875,0.3369140625,-0.2001953125,-0.8837890625,-1.7626953125,-2.3974609375,-2.7880859375,-3.7646484375,-5.0341796875,-5.5712890625,-6.7431640625,-6.6943359375,-5.4736328125,-4.2529296875,-3.4228515625,-2.3486328125,-0.9326171875,-0.1513671875,-0.4443359375,0.4345703125,-0.0048828125,0.2880859375,0.3857421875,-0.1513671875,-0.0048828125,-1.0302734375,-1.2744140625,-2.0068359375,-2.2998046875,-3.5205078125,-4.1064453125,-4.3505859375,-4.9853515625,-6.1572265625,-7.1826171875,-8.0615234375,-8.8916015625,-7.2314453125,-6.7431640625,-5.2783203125,-4.2529296875,-2.5439453125,-1.5185546875,-1.3232421875,0.0439453125,0.3857421875,0.3369140625,0.5810546875,0.2880859375,0.2880859375,0.1416015625,-0.1513671875,-0.7373046875,-1.0791015625,-1.5673828125,-2.2021484375,-2.8857421875,-2.9345703125,-3.6181640625,-4.2041015625,-4.6923828125,-5.1806640625,-6.0107421875,-4.6923828125,-3.1298828125,-2.5439453125,-1.2255859375,-0.0537109375,0.5810546875,2.0947265625,2.6806640625,2.8759765625,2.2900390625,2.8271484375,2.4365234375,2.2412109375,1.9482421875,1.3134765625,0.6787109375,0.2880859375,-0.3955078125,-1.3720703125,-1.9580078125,-3.0322265625,-4.0087890625,-4.0087890625,-4.9365234375,-6.5966796875,-5.9130859375,-4.7900390625,-4.0087890625,-3.5205078125,-3.0810546875,-1.5185546875,-1.0791015625,-0.8837890625,-0.9814453125,-0.3466796875,-1.2744140625,-1.7626953125,-1.9580078125,-2.3486328125,-2.6416015625,-3.2275390625,-3.8623046875,-4.8876953125,-5.4736328125,-5.7666015625,-6.6455078125,-7.6708984375,-8.0126953125,-9.5263671875,-10.2099609375,-10.5517578125,-9.9169921875,-7.8662109375,-8.1103515625,-7.1826171875,-5.7666015625,-5.0341796875,-4.5947265625,-3.7646484375,-3.1787109375,-3.5205078125,-3.7646484375,-3.6669921875,-4.0576171875,-4.0576171875,-3.8623046875,-4.4482421875,-4.6923828125,-5.5712890625,-6.2548828125,-6.7919921875,-7.4755859375,-7.8173828125,-8.5986328125,-9.1845703125,-9.9169921875,-10.3564453125,-10.0634765625,-8.3056640625,-7.7197265625,-6.6455078125,-5.2294921875,-3.9599609375,-3.9111328125,-2.4951171875,-1.8115234375,-2.3486328125,-2.1044921875,-2.0068359375,-2.0556640625,-2.2021484375,-2.6416015625,-2.4951171875,-3.4716796875,-3.2763671875,-3.6669921875,-4.3994140625,-5.2783203125,-5.3271484375,-6.1572265625,-6.4013671875,-8.0126953125,-9.1357421875,-8.4033203125,-7.1826171875,-6.2548828125,-5.6689453125,-5.0341796875,-4.3017578125,-4.0576171875,-3.1787109375,-3.1787109375,-2.8857421875,-3.3251953125,-3.3251953125,-3.7646484375,-3.8623046875,-3.9599609375,-4.9853515625,-5.4248046875,-6.0107421875,-6.9873046875,-7.4267578125,-8.4521484375,-9.3798828125,-10.5517578125,-10.7470703125,-11.2841796875,-12.4560546875,-10.9423828125,-9.7216796875,-9.5751953125,-8.1103515625,-7.1337890625,-6.0595703125,-4.5947265625,-4.2041015625,-4.2529296875,-3.8623046875,-2.8857421875,-3.9111328125,-3.3251953125,-4.1064453125,-4.3994140625,-4.9365234375,-5.4248046875,-6.5966796875,-6.6455078125,-7.6220703125,-8.1591796875,-9.0380859375,-8.6962890625,-10.0634765625,-10.4541015625,-11.1865234375,-9.7216796875,-8.0615234375,-7.4755859375,-5.5712890625,-4.5458984375,-3.0322265625,-1.9580078125,-0.9814453125,-1.2744140625,-1.0302734375,-0.8349609375,-0.0048828125,0.0927734375,-0.8349609375,-1.3232421875,-1.1279296875,-1.5185546875,-2.8369140625,-2.4462890625,-3.8134765625,-4.3017578125,-4.3994140625,-5.0830078125,-4.8388671875,-6.4501953125,-7.3291015625,-7.6220703125,-5.6201171875,-4.8876953125,-3.6181640625,-1.8115234375,-0.5908203125,-0.1513671875,1.2158203125,0.9228515625,1.2158203125,1.3623046875,1.9970703125,1.3134765625,0.6298828125,0.7275390625,0.1416015625,-1.1279296875,-1.9580078125,-2.2021484375,-2.6904296875,-3.7646484375,-4.2041015625,-5.2294921875,-6.3525390625,-6.8896484375,-7.0849609375,-8.9892578125,-7.7197265625,-6.4501953125,-6.0595703125,-4.7412109375,-3.5693359375,-1.9580078125,-2.0556640625,-1.3232421875,-1.6162109375,-1.2744140625,-1.3720703125,-1.4697265625,-2.1533203125,-2.4951171875,-2.7880859375,-3.4228515625,-3.9111328125,-4.6923828125,-5.3271484375,-6.3525390625,-6.7919921875,-7.2802734375,-7.6708984375,-9.2822265625,-9.8681640625,-10.3564453125,-11.2353515625,-10.0634765625,-9.0869140625,-8.4521484375,-7.0361328125,-6.4990234375,-5.1318359375,-3.6181640625,-3.3251953125,-3.1787109375,-2.6416015625,-2.5927734375,-3.4228515625,-2.9833984375,-3.0322265625,-3.1787109375,-3.4228515625,-4.8388671875,-5.0341796875,-5.6689453125,-5.7666015625,-6.4501953125,-7.3779296875,-8.2568359375,-8.6962890625,-9.5751953125,-10.5517578125,-11.0888671875,-9.6240234375,-8.1103515625,-7.7685546875,-6.8408203125,-5.7666015625,-4.3017578125,-3.3740234375,-3.2763671875,-3.3251953125,-3.2275390625,-3.2763671875,-3.5693359375,-3.5693359375,-3.7158203125,-4.1552734375,-5.0341796875,-5.6201171875,-5.9130859375,-6.3525390625,-7.2802734375,-7.5732421875,-8.7939453125,-9.9658203125,-10.4541015625,-11.9677734375,-12.4560546875,-12.6513671875,-11.8212890625,-11.7236328125,-10.8447265625,-10.2099609375,-9.0380859375,-8.5009765625,-7.9638671875,-8.3056640625,-8.0126953125,-8.2568359375,-9.0380859375,-8.9404296875,-8.3544921875,-9.1845703125,-9.9169921875,-10.6982421875,-11.2841796875,-11.5283203125,-12.7490234375,-13.5791015625,-14.6044921875,-15.0439453125,-16.1669921875,-16.8505859375,-17.3388671875,-18.9013671875,-18.9013671875,-17.4365234375,-17.1923828125,-16.0205078125,-14.2626953125,-14.6044921875,-13.8232421875,-12.5537109375,-12.0654296875,-12.2607421875,-12.2607421875,-12.5537109375,-12.5537109375,-12.6025390625,-12.6025390625,-13.6767578125,-13.9208984375,-14.1162109375,-15.0439453125,-15.1416015625,-15.5322265625,-16.3134765625,-16.8994140625,-17.3876953125,-18.6083984375,-18.5595703125,-19.8291015625,-19.1455078125,-18.1201171875,-16.9482421875,-16.8017578125,-15.8740234375,-14.2138671875,-13.7744140625,-13.0419921875,-12.7978515625,-13.0908203125,-12.1142578125,-11.8212890625,-12.9931640625,-12.6513671875,-12.4072265625,-12.8955078125,-12.9443359375,-13.3349609375,-14.6533203125,-14.9462890625,-15.8251953125,-16.4111328125,-17.6318359375,-17.3876953125,-18.3642578125,-18.8525390625,-19.8779296875,-19.4873046875,-18.8037109375,-18.2177734375,-17.5341796875,-16.8017578125,-15.7763671875,-15.3369140625,-14.8974609375,-14.8974609375,-14.8486328125,-14.7998046875,-14.6044921875,-15.1416015625,-14.8974609375,-15.8251953125,-16.1181640625,-16.9970703125,-16.8505859375,-17.5830078125,-18.1201171875,-19.0966796875,-19.2431640625,-20.0244140625,-21.1474609375,-21.8310546875,-22.0751953125,-22.7587890625,-21.7822265625,-21.0986328125,-20.4638671875,-18.6572265625,-17.8759765625,-17.1435546875,-15.9228515625,-15.6787109375,-15.4345703125,-15.5810546875,-14.7021484375,-15.6298828125,-15.0439453125,-15.6298828125,-16.2158203125,-16.0205078125,-16.7041015625,-16.9482421875,-17.7783203125,-17.9736328125,-18.0224609375,-18.8525390625,-18.8037109375,-19.5361328125,-20.4638671875,-20.4150390625,-19.1455078125,-17.7294921875,-16.9970703125,-15.1416015625,-14.1650390625,-13.5791015625,-11.7724609375,-10.7958984375,-11.6748046875,-10.8447265625,-9.4775390625,-10.2099609375,-9.0869140625,-9.5751953125,-10.0634765625,-10.1611328125,-10.4052734375,-10.5517578125,-10.8935546875,-10.6982421875,-11.6259765625,-11.9677734375,-12.3095703125,-12.7978515625,-13.7744140625,-12.6025390625,-10.9423828125,-10.2099609375,-8.7939453125,-7.8173828125,-6.3037109375,-5.5712890625,-4.3994140625,-4.6923828125,-4.1552734375,-3.6181640625,-3.9599609375,-4.1552734375,-4.1552734375,-4.4970703125,-4.7900390625,-5.5224609375,-6.0595703125,-6.2548828125,-6.3525390625,-7.8173828125,-8.6962890625,-8.9892578125,-10.2099609375,-10.2587890625,-9.2333984375,-8.0615234375,-7.0361328125,-5.7666015625,-4.8388671875,-2.8857421875,-2.2021484375,-1.9580078125,-2.0068359375,-1.6162109375,-1.3720703125,-1.1767578125,-2.0556640625,-1.4697265625,-2.4951171875,-2.6904296875,-3.1298828125,-3.7646484375,-3.9111328125,-5.3759765625,-5.9619140625,-6.8896484375,-6.9384765625,-8.0126953125,-8.1591796875,-7.3291015625,-6.6943359375,-5.0341796875,-3.5205078125,-2.4951171875,-1.6162109375,-0.2978515625,0.5810546875,0.8740234375,1.1181640625,1.7529296875,1.5087890625,1.4111328125,1.7529296875,1.8505859375,1.5576171875,0.8740234375,-0.1025390625,-0.7861328125,-0.8349609375,-1.4697265625,-2.0068359375,-2.9833984375,-3.4228515625,-3.9111328125,-4.0087890625,-2.3486328125,-1.4697265625,-0.8837890625,0.6298828125,2.0947265625,3.1201171875,3.8525390625,3.9990234375,4.3896484375,4.4873046875,4.9755859375,4.7314453125,4.2919921875,3.7548828125,4.1943359375,3.1201171875,2.6318359375,1.2646484375,1.2158203125,0.2392578125,0.2392578125,-1.2255859375,-1.3232421875,-2.3974609375,-4.0087890625,-2.6904296875,-1.8115234375,-0.9814453125,-0.5419921875,0.0927734375,1.7529296875,2.0458984375,2.9248046875,2.5341796875,2.5341796875,2.2412109375,1.0205078125,0.4833984375,0.6787109375,0.0927734375,-0.3466796875,-1.2255859375,-2.4951171875,-2.2021484375,-3.7646484375,-4.3017578125,-5.0341796875,-6.2548828125,-6.9384765625,-8.1103515625,-8.4521484375,-7.6220703125,-6.6455078125,-6.2548828125,-5.0830078125,-3.7158203125,-2.9833984375,-2.3486328125,-1.2255859375,-1.2255859375,-1.5185546875,-1.0791015625,-1.1767578125,-1.9091796875,-1.8603515625,-2.3486328125,-3.3251953125,-3.0322265625,-4.4970703125,-5.1806640625,-5.7177734375,-6.3525390625,-7.4755859375,-7.7197265625,-8.2568359375,-9.5263671875,-10.1611328125,-11.1376953125,-9.9169921875,-8.0615234375,-7.2802734375,-6.0107421875,-4.9853515625,-4.3994140625,-2.6904296875,-2.2998046875,-2.2509765625,-1.4697265625,-1.3720703125,-2.2021484375,-1.8115234375,-2.1533203125,-2.8857421875,-4.1064453125,-4.1552734375,-4.5458984375,-5.0341796875,-5.3759765625,-6.2548828125,-6.9873046875,-7.6708984375,-9.2822265625,-8.6962890625,-9.8681640625,-9.6240234375,-8.2080078125,-7.4267578125,-6.2548828125,-5.8154296875,-5.4736328125,-3.9111328125,-2.9833984375,-3.1787109375,-3.3740234375,-3.3740234375,-3.7646484375,-3.7158203125,-4.3994140625,-5.0830078125,-5.2294921875,-5.3271484375,-6.6455078125,-7.4267578125,-8.0126953125,-8.6474609375,-9.7705078125,-10.6005859375,-12.1142578125,-12.4072265625,-13.3349609375,-12.1142578125,-11.4794921875,-10.4541015625,-9.4287109375,-8.5986328125,-7.2314453125,-7.0361328125,-6.4990234375,-6.8408203125,-6.6455078125,-6.3525390625,-6.7431640625,-7.9150390625,-7.4755859375,-8.0126953125,-8.7451171875,-9.4287109375,-9.7705078125,-10.6005859375,-10.9912109375,-12.4560546875,-12.9443359375,-13.5302734375,-14.8974609375,-15.9716796875,-15.2392578125,-14.2626953125,-13.8232421875,-12.6025390625,-11.1376953125,-10.1611328125,-9.1357421875,-8.5498046875,-7.7197265625,-7.4755859375,-7.3291015625,-7.2314453125,-7.7197265625,-7.4755859375,-8.0126953125,-8.3056640625,-8.9404296875,-8.8427734375,-9.3798828125,-10.6494140625,-11.0888671875,-11.3818359375,-11.2841796875,-12.2119140625,-12.9443359375,-14.0185546875,-13.8720703125,-11.4794921875,-11.1376953125,-9.8193359375,-9.1845703125,-7.9638671875,-6.7431640625,-5.8642578125,-5.4736328125,-5.5224609375,-5.1806640625,-5.6201171875,-5.6201171875,-6.2548828125,-5.8642578125,-6.4990234375,-7.2314453125,-7.4755859375,-7.6220703125,-8.8916015625,-9.4775390625,-10.6005859375,-10.6982421875,-11.5771484375,-12.6025390625,-13.3349609375,-13.3837890625,-12.3583984375,-11.8212890625,-10.7470703125,-9.7705078125,-8.9892578125,-7.6708984375,-7.8173828125,-7.6220703125,-7.6220703125,-7.4267578125,-7.8173828125,-8.6474609375,-8.6474609375,-9.0869140625,-9.4287109375,-9.3798828125,-11.3330078125,-11.9189453125,-12.7978515625,-13.3837890625,-14.3115234375,-14.3115234375,-15.5810546875,-15.9228515625,-17.2412109375,-15.3857421875,-14.2138671875,-13.5302734375,-12.1630859375,-11.5771484375,-10.2099609375,-9.5263671875,-9.4287109375,-9.7705078125,-9.4775390625,-9.0869140625,-9.6240234375,-9.2822265625,-10.2587890625,-10.0146484375,-10.6494140625,-11.6259765625,-11.9189453125,-12.6513671875,-13.9208984375,-14.2626953125,-14.4580078125,-15.1416015625,-15.9228515625,-15.9228515625,-16.0693359375,-14.1162109375,-13.7255859375,-12.4560546875,-11.0888671875,-9.4287109375,-8.5498046875,-7.0849609375,-6.8896484375,-7.1826171875,-6.5966796875,-5.7177734375,-6.3037109375,-5.8154296875,-6.5966796875,-7.1826171875,-6.3525390625,-7.4755859375,-7.7197265625,-8.6474609375,-9.0869140625,-9.6728515625,-9.4775390625,-10.9423828125,-11.8701171875,-12.0166015625,-10.9912109375,-9.6728515625,-9.2333984375,-7.7685546875,-6.9384765625,-5.7666015625,-4.4970703125,-3.5205078125,-4.5458984375
