PPG_subj_20,23,F,N,Non-diabetic,104,34.4227,Forehead,0.185546875,0.185546875,0.185546875,0.185546875,0.185546875,0.185546875,91.0986328125,58.9892578125,58.6962890625,57.6708984375,57.7685546875,56.7431640625,55.8642578125,54.3017578125,53.9599609375,52.2509765625,51.6650390625,50.3466796875,49.2724609375,48.0517578125,47.5146484375,46.1474609375,44.7314453125,43.1689453125,42.4853515625,40.7275390625,39.7021484375,39.0185546875,37.6513671875,36.3330078125,35.2099609375,36.7236328125,39.5556640625,40.9228515625,42.8271484375,43.3642578125,44.7314453125,45.8056640625,46.3427734375,46.8798828125,45.9033203125,45.3662109375,45.1220703125,45.5126953125,44.6337890625,42.7294921875,42.0947265625,41.1669921875,40.4833984375,39.9462890625,38.9697265625,37.7490234375,36.8701171875,35.5029296875,34.6240234375,33.5986328125,32.4755859375,31.5478515625,30.0830078125,29.3994140625,27.9833984375,27.1044921875,26.7626953125,28.0322265625,30.1318359375,31.8896484375,33.4521484375,33.5009765625,34.5751953125,35.3076171875,36.0400390625,35.8447265625,35.1123046875,34.7216796875,34.3798828125,34.0869140625,33.0615234375,31.7919921875,30.3271484375,29.6435546875,28.9599609375,28.1787109375,27.0556640625,26.0791015625,24.3701171875,24.1259765625,22.7587890625,21.3916015625,20.1708984375,18.6572265625,18.0224609375,17.2412109375,15.4345703125,15.5322265625,17.0458984375,19.2431640625,20.6591796875,21.7333984375,22.1728515625,22.7099609375,23.1494140625,23.2470703125,23.2470703125,22.1240234375,21.8310546875,21.1962890625,20.3662109375,19.5361328125,18.3642578125,17.3388671875,16.6064453125,15.4345703125,14.7021484375,13.3349609375,12.5048828125,11.2353515625,10.5029296875,9.0869140625,8.2568359375,6.9384765625,6.2060546875,5.3271484375,3.4716796875,3.6181640625,4.8876953125,7.5244140625,9.4287109375,10.0146484375,10.7958984375,10.9423828125,11.5771484375,12.0654296875,12.0166015625,12.2607421875,11.7236328125,11.3818359375,11.1376953125,10.2587890625,9.1845703125,8.6474609375,7.4267578125,6.4990234375,5.9619140625,5.0341796875,4.0576171875,2.6416015625,2.0068359375,1.2255859375,-0.2392578125,-1.2158203125,-2.1923828125,-2.8759765625,-3.9990234375,-3.5107421875,-2.8271484375,0.0537109375,1.5673828125,1.8115234375,2.7392578125,3.5205078125,3.7646484375,4.3505859375,4.0087890625,3.6181640625,2.7392578125,3.2275390625,2.7392578125,1.1767578125,0.7861328125,-0.3369140625,-1.0205078125,-1.5087890625,-2.7783203125,-3.6572265625,-5.6103515625,-5.2685546875,-6.1962890625,-7.4658203125,-8.2470703125,-9.3212890625,-10.9326171875,-11.7626953125,-12.9345703125,-11.5185546875,-9.5654296875,-8.1005859375,-6.1474609375,-6.1474609375,-5.3662109375,-4.7314453125,-4.0478515625,-4.4873046875,-5.0244140625,-4.8779296875,-5.0244140625,-4.6826171875,-4.8779296875,-6.2451171875,-7.3681640625,-7.4658203125,-8.1982421875,-9.2724609375,-10.4931640625,-11.1767578125,-12.1044921875,-12.7392578125,-13.9111328125,-14.6435546875,-15.1318359375,-16.0595703125,-17.4267578125,-18.1103515625,-16.3525390625,-14.5458984375,-12.8857421875,-12.2021484375,-11.5673828125,-11.0791015625,-10.2490234375,-10.8349609375,-10.2490234375,-10.4931640625,-10.8349609375,-11.1279296875,-10.9814453125,-12.2021484375,-12.5439453125,-12.3974609375,-13.8134765625,-14.6435546875,-15.1318359375,-15.6689453125,-16.1572265625,-16.9384765625,-17.7197265625,-18.4521484375,-19.2822265625,-19.9658203125,-19.8681640625,-18.5498046875,-15.9619140625,-14.8876953125,-14.5947265625,-14.2529296875,-13.4228515625,-13.3740234375,-13.5205078125,-13.5205078125,-13.2763671875,-14.0087890625,-13.3740234375,-14.1064453125,-14.6923828125,-14.8876953125,-15.7666015625,-17.3291015625,-17.1826171875,-18.2568359375,-18.3544921875,-19.9658203125,-20.8447265625,-21.2353515625,-21.7724609375,-22.3095703125,-22.4072265625,-20.8935546875,-19.6240234375,-17.7197265625,-16.5966796875,-15.8642578125,-15.3271484375,-13.6669921875,-13.9599609375,-13.6181640625,-14.0576171875,-14.0087890625,-14.8388671875,-14.3994140625,-14.5458984375,-15.4736328125,-15.9619140625,-16.5966796875,-17.8173828125,-17.5244140625,-19.1845703125,-20.0146484375,-20.7470703125,-20.8935546875,-21.7724609375,-22.9443359375,-23.5302734375,-23.3349609375,-21.8212890625,-20.1611328125,-18.3056640625,-17.7685546875,-16.8896484375,-15.2294921875,-15.1318359375,-14.8876953125,-15.2294921875,-14.8388671875,-15.1318359375,-15.9130859375,-15.6689453125,-15.8642578125,-16.8896484375,-18.1103515625,-17.8662109375,-18.4033203125,-19.9658203125,-20.4052734375,-21.8701171875,-22.0166015625,-23.2861328125,-23.4814453125,-24.5556640625,-25.5810546875,-26.6552734375,-26.2646484375,-25.4345703125,-22.6513671875,-21.9189453125,-21.7236328125,-20.0634765625,-20.3076171875,-18.9404296875,-19.5751953125,-18.9404296875,-19.1357421875,-19.0380859375,-19.2333984375,-19.3798828125,-20.6982421875,-21.8212890625,-22.4072265625,-22.9931640625,-24.3115234375,-24.2626953125,-24.8486328125,-26.4599609375,-26.7041015625,-28.1201171875,-28.5595703125,-30.1220703125,-30.7080078125,-30.3662109375,-29.3408203125,-27.9248046875,-26.2646484375,-25.9228515625,-25.7763671875,-24.8486328125,-24.3115234375,-24.5556640625,-25.3369140625,-25.1904296875,-25.0439453125,-24.8486328125,-25.0927734375,-26.0693359375,-27.0947265625,-27.2900390625,-28.1689453125,-28.3642578125,-29.2919921875,-29.6337890625,-31.4404296875,-31.8310546875,-32.1728515625,-33.0029296875,-33.9306640625,-34.5654296875,-33.0517578125,-31.0986328125,-30.0244140625,-28.8525390625,-27.2900390625,-27.0458984375,-25.5810546875,-25.8740234375,-25.2392578125,-25.3369140625,-25.9228515625,-25.7275390625,-26.0693359375,-26.8017578125,-27.4365234375,-28.1201171875,-29.0478515625,-29.1943359375,-30.1220703125,-31.6357421875,-32.4169921875,-33.6865234375,-33.3447265625,-34.4677734375,-34.5654296875,-34.2724609375,-32.6611328125,-30.6591796875,-29.3408203125,-29.1455078125,-28.9501953125,-27.2412109375,-26.0693359375,-26.0205078125,-25.9716796875,-25.8740234375,-26.4111328125,-26.5576171875,-26.6064453125,-28.3154296875,-29.0478515625,-29.5849609375,-30.1220703125,-31.2939453125,-31.2939453125,-32.1240234375,-33.5888671875,-34.2724609375,-35.6396484375,-35.8837890625,-36.0791015625,-34.5166015625,-33.4423828125,-31.4404296875,-30.7568359375,-29.6337890625,-28.6572265625,-28.5107421875,-29.4873046875,-29.3896484375,-29.6826171875,-29.9755859375,-30.1220703125,-30.8544921875,-31.6845703125,-31.8310546875,-33.1005859375,-34.0283203125,-34.7119140625,-35.6884765625,-36.7626953125,-38.1298828125,-39.6923828125,-40.1318359375,-41.0107421875,-41.3037109375,-38.8623046875,-36.6650390625,-35.5419921875,-34.8583984375,-33.8330078125,-33.9306640625,-32.9052734375,-33.6376953125,-33.3447265625,-33.4423828125,-34.1259765625,-34.0771484375,-34.2724609375,-35.5419921875,-36.4697265625,-37.6416015625,-38.4228515625,-39.3994140625,-39.7412109375,-41.7919921875,-42.7685546875,-43.3056640625,-44.1357421875,-44.7705078125,-45.7958984375,-47.2119140625,-48.0908203125,-46.9189453125,-44.5751953125,-42.5732421875,-41.7919921875,-41.2060546875,-41.1083984375,-40.5224609375,-39.3994140625,-40.0341796875,-40.3759765625,-40.3271484375,-40.4248046875,-40.7177734375,-41.3525390625,-41.7431640625,-42.8662109375,-43.6962890625,-45.0634765625,-45.4052734375,-46.0888671875,-47.1630859375,-48.5302734375,-49.5556640625,-49.9462890625,-50.7763671875,-51.3134765625,-49.7509765625,-46.9677734375,-45.3564453125,-44.4775390625,-43.8427734375,-43.1103515625,-42.7685546875,-42.8173828125,-43.5498046875,-42.6708984375,-43.2080078125,-43.5009765625,-43.5986328125,-43.9892578125,-46.0400390625,-46.2841796875,-47.1630859375,-47.6513671875,-48.1884765625,-49.7998046875,-50.6787109375,-51.8017578125,-52.1435546875,-53.6572265625,-54.1943359375,-54.5849609375,-53.5107421875,-50.4345703125,-48.8720703125,-47.5048828125,-46.5283203125,-45.2587890625,-44.1357421875,-43.4033203125,-44.1357421875,-43.8916015625,-44.7216796875,-44.4287109375,-44.7216796875,-45.1611328125,-46.4306640625,-46.6748046875,-48.1884765625,-48.5791015625,-49.7021484375,-50.9716796875,-51.6552734375,-52.4365234375,-53.5595703125,-54.0478515625,-54.9267578125,-55.9521484375,-57.1240234375,-56.0009765625,-53.0712890625,-50.8251953125,-48.8720703125,-48.4326171875,-47.4560546875,-46.1865234375,-45.7958984375,-45.7470703125,-46.4794921875,-46.0888671875,-45.8935546875,-47.1142578125,-46.9189453125,-48.2861328125,-48.2373046875,-49.4091796875,-50.0927734375,-50.2880859375,-52.2900390625,-53.0224609375,-53.6572265625,-55.0732421875,-55.7568359375,-56.4892578125,-57.2705078125,-57.9052734375,-59.6142578125,-59.4677734375,-57.3681640625,-54.4873046875,-53.1201171875,-51.7041015625,-50.8251953125,-49.7021484375,-49.1162109375,-49.0673828125,-48.8232421875,-49.1650390625,-49.4580078125,-49.4091796875,-49.4091796875,-50.2392578125,-51.0693359375,-51.7529296875,-52.8271484375,-53.6572265625,-54.0478515625,-54.8291015625,-55.9033203125,-56.9287109375,-57.9052734375,-58.5400390625,-59.2236328125,-60.9814453125,-61.7626953125,-61.1767578125,-59.6142578125,-56.9287109375,-54.5849609375,-55.0732421875,-54.7802734375,-53.7060546875,-53.0224609375,-53.6083984375,-53.1689453125,-53.0712890625,-53.4130859375,-53.4130859375,-53.9501953125,-54.3408203125,-55.7080078125,-56.1962890625,-57.1240234375,-58.1494140625,-58.8818359375,-59.5654296875,-59.1748046875,-60.8349609375,-62.0556640625,-62.4951171875,-63.7646484375,-62.1044921875,-59.7119140625,-57.7099609375,-56.0498046875,-55.3173828125,-54.5361328125,-53.4130859375,-52.9736328125,-53.2177734375,-53.6572265625,-53.6083984375,-53.1201171875,-54.0966796875,-53.9501953125,-54.9267578125,-55.7568359375,-56.6845703125,-57.4169921875,-58.1005859375,-59.1748046875,-59.9560546875,-61.1279296875,-62.1044921875,-62.4462890625,-62.9833984375,-64.4482421875,-65.0830078125,-64.6435546875,-61.5673828125,-58.6376953125,-57.0751953125,-55.8544921875,-54.2431640625,-53.7548828125,-53.2177734375,-52.1923828125,-52.3876953125,-52.6318359375,-52.3388671875,-52.3388671875,-52.9736328125,-53.7060546875,-54.5849609375,-55.1220703125,-56.0986328125,-56.4892578125,-57.8076171875,-58.5400390625,-59.4189453125,-60.2490234375,-60.4443359375,-61.3232421875,-63.0810546875,-64.1064453125,-65.6201171875,-66.3037109375,-64.7900390625,-62.2509765625,-59.1259765625,-57.8076171875,-56.7333984375,-55.2197265625,-53.9990234375,-53.4619140625,-53.0224609375,-53.3642578125,-53.4130859375,-53.1201171875,-53.8525390625,-54.1455078125,-54.7802734375,-55.6591796875,-56.5380859375,-57.8564453125,-58.4912109375,-59.2236328125,-60.2978515625,-60.8837890625,-62.2509765625,-62.8857421875,-64.1552734375,-64.8388671875,-65.7177734375,-67.4755859375,-67.8173828125,-67.0361328125,-64.3994140625,-61.3720703125,-60.6396484375,-59.8095703125,-58.5888671875,-58.0517578125,-57.2705078125,-57.3681640625,-57.4169921875,-58.2958984375,-57.6611328125,-57.8564453125,-58.3447265625,-58.9306640625,-60.1513671875,-60.6884765625,-61.3720703125,-61.8603515625,-63.0322265625,-63.5205078125,-64.8876953125,-65.5712890625,-66.9384765625,-67.5244140625,-68.6474609375,-67.5732421875,-65.9130859375,-62.9833984375,-61.5673828125,-61.1279296875,-59.3701171875,-59.3212890625,-57.8076171875,-57.7587890625,-57.9052734375,-58.1005859375,-57.9541015625,-58.0517578125,-58.8818359375,-59.1748046875,-59.7119140625,-60.9814453125,-61.8603515625,-62.5927734375,-63.1298828125,-64.4970703125,-65.6201171875,-66.8896484375,-67.9150390625,-67.8662109375,-69.2333984375,-70.5029296875,-69.3798828125,-66.0595703125,-63.7158203125,-61.5185546875,-60.2490234375,-58.9794921875,-57.3193359375,-56.8310546875,-56.8310546875,-56.2939453125,-56.5869140625,-56.8798828125,-56.1474609375,-56.7822265625,-57.5146484375,-58.5400390625,-59.8095703125,-60.5908203125,-61.4208984375,-62.1533203125,-63.1298828125,-64.1064453125,-65.0341796875,-66.4990234375,-67.4755859375,-68.3056640625,-68.8916015625,-70.6494140625,-71.7236328125,-70.9423828125,-68.1103515625,-64.6435546875,-63.0810546875,-61.3232421875,-60.2001953125,-58.8330078125,-58.7353515625,-57.5634765625,-57.5146484375,-57.8076171875,-58.1494140625,-57.8076171875,-58.9306640625,-59.8095703125,-60.2001953125,-61.1279296875,-62.2509765625,-63.0810546875,-63.6181640625,-65.0830078125,-65.7177734375,-66.5478515625,-68.2080078125,-68.9892578125,-69.8681640625,-70.9912109375,-71.6259765625,-72.4072265625,-73.6767578125,-73.0908203125,-69.6728515625,-66.9873046875,-64.9365234375,-64.4970703125,-63.7158203125,-62.7880859375,-61.9580078125,-62.2021484375,-62.5927734375,-62.7392578125,-62.7392578125,-62.5927734375,-62.9833984375,-63.9599609375,-65.1806640625,-66.4990234375,-66.7919921875,-67.1826171875,-68.1103515625,-69.5263671875,-69.9169921875,-70.7470703125,-71.4794921875,-73.0419921875,-74.1162109375,-74.0185546875,-72.3583984375,-69.1357421875,-66.4013671875,-65.7177734375,-64.3505859375,-63.8623046875,-64.0576171875,-63.0322265625,-63.5693359375,-63.7158203125,-63.7646484375,-63.3251953125,-63.3251953125,-64.5458984375,-65.8154296875,-66.1572265625,-67.3779296875,-68.1591796875,-68.2080078125,-69.7705078125,-70.6982421875,-71.9189453125,-72.7978515625,-73.4814453125,-74.7998046875,-75.6298828125,-74.7509765625,-72.2607421875,-68.5009765625,-66.4501953125,-65.3271484375,-63.9599609375,-62.2509765625,-61.0791015625,-61.0791015625,-61.2744140625,-61.4208984375,-61.8603515625,-61.2255859375,-61.9091796875,-62.1044921875,-63.2763671875,-64.5947265625,-64.8876953125,-66.3037109375,-67.0849609375,-67.9638671875,-68.5498046875,-70.0634765625,-70.9423828125,-71.0888671875,-72.7001953125,-73.8232421875,-74.8974609375,-73.8232421875,-71.3330078125,-68.0615234375,-66.2060546875,-64.6435546875,-63.1787109375,-62.5927734375,-61.3232421875,-61.4208984375,-61.5185546875,-61.2255859375,-63.0810546875,-63.2763671875,-64.1064453125,-64.9365234375,-65.3759765625,-66.3525390625,-67.2802734375,-68.4033203125,-68.7451171875,-69.9658203125,-70.9912109375,-71.5283203125,-72.6513671875,-73.3837890625,-74.9951171875,-75.7763671875,-76.7529296875,-76.9970703125,-75.7275390625,-72.3583984375,-69.5751953125,-68.4521484375,-67.8173828125,-66.5966796875,-65.9130859375,-64.9853515625,-64.9365234375,-65.8154296875,-65.9619140625,-65.7666015625,-65.5712890625,-66.3525390625,-67.3291015625,-68.1103515625,-68.4033203125,-69.9658203125,-70.2099609375,-71.7724609375,-73.1396484375,-73.2373046875,-74.1650390625,-74.7509765625,-75.9228515625,-76.5087890625,-74.1650390625,-71.3818359375,-68.9404296875,-68.2568359375,-67.0361328125,-65.7666015625,-65.2294921875,-65.7666015625,-66.0595703125,-66.4501953125,-65.9130859375,-66.1572265625,-66.7431640625,-67.2802734375,-68.5498046875,-69.5263671875,-69.6728515625,-71.1376953125,-72.0166015625,-72.0166015625,-73.5791015625,-73.7744140625,-74.5556640625,-75.8740234375,-76.7041015625,-76.2646484375,-73.6279296875,-69.8681640625,-67.9638671875,-66.8896484375,-65.5224609375,-64.3505859375,-63.1787109375,-62.4462890625,-62.7392578125,-62.5439453125,-63.2763671875,-62.7392578125,-63.2275390625,-64.1552734375,-64.4482421875,-65.7666015625,-66.5478515625,-66.6943359375,-68.4033203125,-69.5751953125,-69.5263671875,-71.3330078125,-71.9677734375,-73.4326171875,-74.0185546875,-75.5810546875,-76.5576171875,-75.6787109375,-72.0166015625,-69.0380859375,-67.4755859375,-66.4501953125,-64.4970703125,-63.2763671875,-61.9091796875,-62.2998046875,-62.1044921875,-62.2998046875,-62.7392578125,-62.4462890625,-62.9345703125,-63.2763671875,-64.6435546875,-65.6201171875,-66.7919921875,-66.3525390625,-68.3056640625,-68.7451171875,-69.9169921875,-71.0888671875,-71.9189453125,-73.4326171875,-74.0673828125,-74.9951171875,-76.5576171875,-77.2412109375,-77.7294921875,-75.4833984375,-71.5283203125,-69.4775390625,-68.5986328125,-67.6220703125,-66.5478515625,-65.5712890625,-65.7666015625,-65.1806640625,-66.1572265625,-65.7666015625,-65.9130859375,-66.1083984375,-66.8408203125,-67.6220703125,-68.4521484375,-69.9658203125,-70.1123046875,-70.7958984375,-72.3095703125,-73.3837890625,-74.0185546875,-74.5556640625,-75.7763671875,-77.4365234375,-78.3154296875,-77.6806640625,-75.0439453125,-71.9189453125,-70.5029296875,-70.3076171875,-69.2333984375,-68.2568359375,-67.6708984375,-68.2568359375,-68.6962890625,-68.0615234375,-68.0126953125,-68.8427734375,-69.0380859375,-69.5751953125,-71.4794921875,-71.3818359375,-72.8466796875,-73.1884765625,-74.5068359375,-75.5810546875,-76.8505859375,-77.2412109375,-78.8037109375,-79.7314453125,-80.4150390625,-80.3662109375,-77.9248046875,-74.2138671875,-72.7001953125,-71.5771484375,-70.1611328125,-68.7939453125,-68.1591796875,-66.8896484375,-67.5244140625,-67.6708984375,-67.2802734375,-67.8173828125,-67.9150390625,-68.6474609375,-69.7705078125,-70.3076171875,-70.9912109375,-71.8212890625,-73.0419921875,-73.9208984375,-74.6044921875,-76.1181640625,-76.5087890625,-77.8271484375,-78.8037109375,-80.1708984375,-81.6845703125,-82.0751953125,-80.6591796875,-76.8994140625,-74.5556640625,-72.4072265625,-71.2841796875,-70.2587890625,-68.9404296875,-67.4267578125,-67.4267578125,-67.8662109375,-67.3779296875,-67.7685546875,-68.3056640625,-68.8916015625,-69.4775390625,-70.1611328125,-70.6005859375,-72.2607421875,-72.8955078125,-73.6767578125,-74.7021484375,-76.2158203125,-77.0947265625,-77.8271484375,-78.6572265625,-80.0732421875,-81.2451171875,-82.2705078125,-82.9052734375,-82.0263671875,-79.1943359375,-76.0693359375,-74.7998046875,-73.6767578125,-72.1630859375,-71.6259765625,-70.6005859375,-70.3564453125,-70.6982421875,-70.5029296875,-70.3564453125,-70.8447265625,-71.0400390625,-72.3583984375,-72.7001953125,-74.3115234375,-73.9697265625,-75.1416015625,-76.5087890625,-77.1923828125,-78.0712890625,-79.0966796875,-80.0244140625,-81.1474609375,-82.2216796875,-83.2470703125,-82.2216796875,-79.5849609375,-76.1669921875,-75.2392578125,-73.9697265625,-72.7001953125,-72.5537109375,-71.5283203125,-71.3818359375,-72.1142578125,-71.8701171875,-71.8212890625,-72.3095703125,-72.7978515625,-73.5302734375,-74.7021484375,-74.8974609375,-76.2158203125,-77.6806640625,-77.5341796875,-79.0478515625,-80.4150390625,-80.6103515625,-82.4169921875,-83.1005859375,-84.6142578125,-84.7607421875,-82.5146484375,-79.3408203125,-76.6064453125,-75.3857421875,-73.6279296875,-72.7978515625,-71.9189453125,-70.6005859375,-70.6982421875,-70.6494140625,-70.9912109375,-71.1865234375,-71.4794921875,-72.7001953125,-72.7978515625,-74.1650390625,-74.7021484375,-75.7763671875,-76.9482421875,-77.7294921875,-79.0478515625,-80.3173828125,-81.0009765625,-82.0263671875,-83.2470703125,-83.5888671875,-85.3466796875,-86.3720703125,-85.4931640625,-82.9541015625,-79.9755859375,-77.4853515625,-75.9716796875,-74.7021484375,-73.3837890625,-72.4560546875,-72.4560546875,-72.0654296875,-72.4560546875,-72.8955078125,-72.1142578125,-73.1884765625,-74.2626953125,-75.2392578125,-76.3623046875,-77.0458984375,-77.8759765625,-78.8037109375,-79.6337890625,-81.5380859375,-82.2705078125,-83.5888671875,-84.4677734375,-85.1025390625,-86.8603515625,-87.6904296875,-88.5693359375,-88.8134765625,-87.6904296875,-83.9794921875,-81.5380859375,-80.5615234375,-79.2919921875,-78.5107421875,-76.9970703125,-77.4853515625,-77.5830078125,-77.9736328125,-77.8271484375,-78.0224609375,-77.9248046875,-78.7060546875,-79.2431640625,-80.2685546875,-81.2939453125,-82.2216796875,-83.1494140625,-83.9794921875,-84.7119140625,-85.6884765625,-86.1279296875,-88.0810546875,-89.4970703125,-89.7412109375,-89.7900390625,-87.4951171875,-84.0771484375,-82.4169921875,-81.0498046875,-80.1220703125,-79.1455078125,-78.4130859375,-78.1201171875,-77.8271484375,-78.6083984375,-78.7548828125,-78.4619140625,-79.0966796875,-79.8291015625,-80.7080078125,-82.0751953125,-82.4169921875,-83.6376953125,-84.9560546875,-85.3466796875,-86.9580078125,-88.0810546875,-88.0810546875,-89.2529296875,-90.7177734375,-91.1083984375,-90.4736328125,-88.2275390625,-84.4677734375,-82.7587890625,-81.1962890625,-79.0478515625,-78.3642578125,-77.1923828125,-76.4111328125,-76.8017578125,-77.0458984375,-77.2900390625,-77.0458984375,-77.6318359375,-77.9736328125,-79.0478515625,-80.0244140625,-80.8544921875,-81.7822265625,-83.5400390625,-83.9306640625,-85.0048828125,-86.0791015625,-87.0068359375,-88.2275390625,-89.2529296875,-90.1318359375,-91.4501953125,-92.9150390625,-92.0849609375,-89.2529296875,-85.2490234375,-83.7353515625,-82.1728515625,-81.0009765625,-79.8779296875,-78.3642578125,-78.0224609375,-78.2666015625,-78.1201171875,-78.2177734375,-78.2666015625,-78.7548828125,-79.8291015625,-81.0009765625,-81.3916015625,-82.1728515625,-83.6376953125,-84.6142578125,-85.1513671875,-86.5673828125,-87.9345703125,-88.5693359375,-89.4482421875,-90.1318359375,-92.0361328125,-93.0126953125,-94.0380859375,-91.9873046875,-87.6904296875,-85.5908203125,-84.2724609375,-83.8818359375,-82.9541015625,-81.3427734375,-82.2216796875,-81.3916015625,-81.7333984375,-81.8798828125,-81.7822265625,-82.6123046875,-83.0029296875,-83.5400390625,-85.0537109375,-85.4931640625,-86.0791015625,-86.9580078125,-88.1298828125,-88.8134765625,-89.9853515625,-90.7666015625,-90.8154296875,-92.8662109375,-92.8662109375,-90.4736328125,-87.7880859375,-85.5908203125,-83.9306640625,-83.1494140625,-81.4404296875,-81.0009765625,-80.7568359375,-80.8544921875,-81.1474609375,-81.0986328125,-81.2451171875,-81.8798828125,-82.2216796875,-83.7841796875,-84.3701171875,-87.0068359375,-87.9833984375,-88.7158203125,-89.3017578125,-91.4990234375,-91.8896484375,-93.1591796875,-93.7451171875,-95.1123046875,-96.2841796875,-95.7470703125,-92.7685546875,-89.0087890625,-87.0556640625,-85.4931640625,-84.3212890625,-83.2958984375,-81.7333984375,-81.2451171875,-81.3916015625,-81.3916015625,-81.7822265625,-82.0751953125,-81.9775390625,-82.3193359375,-84.0771484375,-85.2490234375,-86.1767578125,-86.4697265625,-87.8369140625,-89.0087890625,-89.5947265625,-90.9130859375,-92.0849609375,-92.9638671875,-94.2333984375,-95.3564453125,-96.1376953125,-96.6259765625,-96.2353515625,-92.1337890625,-89.2529296875,-88.1298828125,-86.3720703125,-84.8095703125,-83.7841796875,-83.4423828125,-83.4423828125,-83.1982421875,-83.6376953125,-83.2470703125,-83.7353515625,-83.5888671875,-85.3466796875,-86.0302734375,-86.3232421875,-87.7392578125,-88.8134765625,-90.0341796875,-90.9130859375,-91.1083984375,-92.7685546875,-93.7939453125,-94.6728515625,-95.7958984375,-96.7724609375,-95.4052734375,-92.4267578125,-89.6923828125,-88.6669921875,-87.9345703125,-86.0791015625,-85.4931640625,-85.5419921875,-85.5908203125,-85.6396484375,-85.4931640625,-85.2978515625,-86.0791015625,-86.0302734375,-87.7392578125,-88.4716796875,-89.3994140625,-90.5224609375,-91.3037109375,-92.3291015625,-93.3056640625,-94.6240234375,-95.3076171875,-96.3330078125,-97.2607421875,-98.9208984375,-98.6279296875,-95.7958984375,-92.7197265625,-89.4482421875,-88.3740234375,-87.3486328125,-86.1279296875,-85.2490234375,-84.3212890625,-85.0537109375,-85.1513671875,-84.5654296875,-85.2001953125,-84.9072265625,-86.2744140625,-86.9091796875,-88.3251953125,-88.9599609375,-90.0341796875,-90.4736328125,-91.7919921875,-92.6708984375,-94.2333984375,-95.1611328125,-95.8447265625,-96.8701171875,-98.7255859375,-99.6044921875,-99.7998046875,-97.6513671875,-93.7939453125,-91.0595703125,-89.0576171875,-87.8369140625,-86.4697265625,-85.6884765625,-84.8095703125,-85.2978515625,-85.3466796875,-85.0537109375,-85.4443359375,-85.4443359375,-86.3232421875,-87.2021484375,-87.9345703125,-89.5947265625,-90.2294921875,-91.3525390625,-92.4267578125,-93.6474609375,-94.6728515625,-95.7470703125,-97.1142578125,-97.7978515625,-98.9208984375,-99.7021484375,-100.8251953125,-101.9970703125,-101.6552734375,-97.1142578125,-94.2333984375,-92.2802734375,-90.7666015625,-89.5947265625,-88.6669921875,-88.3251953125,-87.2509765625,-88.1298828125,-88.0322265625,-87.9345703125,-88.0810546875,-88.7646484375,-89.3017578125,-90.8642578125,-91.1572265625,-92.1337890625,-93.8427734375,-94.1845703125,-96.0400390625,-96.5283203125,-97.7001953125,-98.9208984375,-99.9951171875,-100.4833984375,-101.8994140625,-103.2177734375,-102.5341796875,-99.7998046875,-96.1865234375,-94.3310546875,-93.1591796875,-92.2314453125,-91.4990234375,-91.5966796875,-91.4013671875,-91.8896484375,-91.5478515625,-92.0361328125,-92.1337890625,-92.5732421875,-93.5986328125,-94.9658203125,-96.2841796875,-96.5771484375,-97.4560546875,-99.0673828125,-99.7021484375,-100.7275390625,-101.6064453125,-102.8271484375,-102.9248046875,-105.1708984375,-105.2197265625,-103.2177734375,-98.4326171875,-96.1376953125,-94.7705078125,-93.4521484375,-92.5732421875,-92.1826171875,-90.7177734375,-91.6455078125,-92.0849609375,-92.1337890625,-91.5478515625,-92.5732421875,-93.5009765625,-94.4775390625,-95.3564453125,-96.2353515625,-97.4072265625,-98.0908203125,-99.4091796875,-100.0927734375,-101.6552734375,-102.5830078125,-103.3642578125,-104.3408203125,-106.2451171875,-106.8310546875,-107.5634765625,-107.3193359375,-103.1689453125,-99.2626953125,-97.4072265625,-96.1865234375,-94.6240234375,-93.5986328125,-93.1591796875,-92.8173828125,-93.1103515625,-93.4033203125,-93.5986328125,-93.2568359375,-93.2568359375,-95.0146484375,-96.2841796875,-97.4072265625,-97.9443359375,-99.0673828125,-100.5810546875,-100.9228515625,-102.3876953125,-104.2919921875,-104.5361328125,-105.6103515625,-106.2451171875,-107.5634765625,-108.5888671875,-109.8095703125,-110.6396484375,-107.6611328125,-103.0712890625,-100.6787109375,-99.5068359375,-98.7255859375,-97.0654296875,-96.1376953125,-96.1376953125,-96.6748046875,-96.8701171875,-96.7236328125,-97.5537109375,-97.0166015625,-98.2373046875,-98.9697265625,-100.4345703125,-101.5576171875,-101.8017578125,-103.2177734375,-104.4384765625,-105.2197265625,-105.9033203125,-107.4169921875,-108.1494140625,-109.3701171875,-110.5908203125,-111.2255859375,-110.4443359375,-107.1728515625,-103.8037109375,-102.1435546875,-101.6064453125,-100.8740234375,-99.6533203125,-99.9462890625,-99.9462890625,-100.2392578125,-99.8974609375,-99.8486328125,-100.3369140625,-101.0693359375,-101.9482421875,-103.2177734375,-104.1943359375,-104.8291015625,-105.3173828125,-106.3427734375,-107.6611328125,-109.2236328125,-109.4189453125,-110.5908203125,-111.7626953125,-112.9345703125,-112.3974609375,-109.9560546875,-105.6591796875,-103.8525390625,-102.4365234375,-100.1904296875,-99.4091796875,-98.1884765625,-98.2861328125,-98.5791015625,-98.9697265625,-98.6279296875,-98.6767578125,-98.8720703125,-99.7021484375,-100.8740234375,-101.3134765625,-102.8271484375,-103.7548828125,-103.9013671875,-105.2197265625,-106.4404296875,-107.1728515625,-108.3447265625,-108.9306640625,-110.2490234375,-111.0302734375,-111.5673828125,-111.0791015625,-106.6357421875,-103.5595703125,-101.7041015625,-100.2392578125,-99.3115234375,-97.7490234375,-97.2607421875,-96.5771484375,-96.9189453125,-97.1142578125,-97.4072265625,-97.5048828125,-97.7978515625,-98.8720703125,-99.9951171875,-100.7763671875,-101.0205078125,-102.2412109375,-103.1689453125,-104.5361328125,-104.6826171875,-105.9033203125,-107.3193359375,-108.1494140625,-108.9794921875,-109.8095703125,-110.5419921875,-111.5673828125,-109.5654296875,-106.1474609375,-103.5107421875,-101.7529296875,-100.3857421875,-99.1650390625,-98.1884765625,-97.7978515625,-97.2607421875,-97.8955078125,-97.5537109375,-97.6513671875,-98.3837890625,-98.7255859375,-99.5068359375,-100.6787109375,-101.0693359375,-101.6552734375,-103.1201171875,-103.7548828125,-104.6337890625,-106.2451171875,-106.4404296875,-107.2705078125,-108.1494140625,-108.9306640625,-110.0048828125,-111.0791015625,-110.3466796875,-106.8310546875,-104.0966796875,-102.3388671875,-101.8017578125,-101.1669921875,-100.2392578125,-100.0439453125,-100.7275390625,-100.0927734375,-100.3369140625,-99.9951171875,-100.1416015625,-101.0205078125,-102.3876953125,-102.2412109375,-103.5107421875,-104.4384765625,-105.2197265625,-105.8544921875,-106.0009765625,-107.8076171875,-108.4423828125,-109.1748046875,-109.8583984375,-110.4931640625,-108.6376953125,-104.5849609375,-102.3388671875,-100.1416015625,-99.8486328125,-98.6767578125,-97.8955078125,-97.7001953125,-97.9931640625,-97.6513671875,-97.9931640625,-97.9931640625,-98.0419921875,-99.5556640625,-99.9951171875,-101.1669921875,-101.8994140625,-102.3388671875,-103.6572265625,-104.0478515625,-105.2197265625,-106.3427734375,-106.8310546875,-108.0029296875,-109.0283203125,-109.1259765625,-109.0771484375,-106.3916015625,-102.6806640625,-100.2880859375,-99.0673828125,-97.6513671875,-96.3330078125,-94.7705078125,-94.9169921875,-94.9169921875,-94.8193359375,-95.3564453125,-95.2587890625,-95.1611328125,-96.3330078125,-97.6025390625,-98.2861328125,-98.7255859375,-99.7021484375,-100.6787109375,-101.8994140625,-102.5830078125,-104.3896484375,-104.4873046875,-105.6103515625,-107.0263671875,-108.0517578125,-108.5400390625,-108.9794921875,-107.3681640625,-103.0712890625,-100.9228515625,-99.1650390625,-97.5537109375,-96.5771484375,-95.6494140625,-95.1611328125,-95.1123046875,-95.6494140625,-94.8681640625,-95.7470703125,-95.1123046875,-96.0400390625,-97.7001953125,-98.6767578125,-99.1650390625,-100.0927734375,-100.7275390625,-101.9970703125,-103.1689453125,-104.4873046875,-105.2197265625,-106.0498046875,-106.3427734375,-108.2470703125,-109.0771484375,-109.9072265625,-110.7373046875,-109.5166015625,-104.7314453125,-102.1923828125,-101.2646484375,-100.0927734375,-99.2138671875,-98.9208984375,-98.3837890625,-98.7744140625,-98.8232421875,-99.3603515625,-98.8720703125,-99.2626953125,-99.9951171875,-101.3134765625,-102.2412109375,-103.2666015625,-103.7060546875,-104.2431640625,-105.3173828125,-106.3916015625,-106.5869140625,-108.1005859375,-108.7841796875,-109.6630859375,-110.2490234375,-109.4189453125,-105.9033203125,-103.1201171875,-101.7529296875,-100.5810546875,-100.5322265625,-99.4091796875,-98.7744140625,-99.7021484375,-99.4580078125,-99.6533203125,-99.8486328125,-100.1416015625,-101.0693359375,-102.1435546875,-102.8759765625,-103.8037109375,-104.5849609375,-105.7080078125,-106.1962890625,-107.1728515625,-107.9052734375,-108.8330078125,-109.3701171875,-110.3466796875,-111.4208984375,-110.2490234375,-105.3662109375,-103.4130859375,-101.1669921875,-100.1904296875,-98.4814453125,-97.4560546875,-96.5283203125,-96.1376953125,-96.4794921875,-96.3330078125,-96.8212890625,-97.0166015625,-97.3583984375,-98.5302734375,-99.9951171875,-100.6298828125,-101.8505859375,-102.3388671875,-103.3642578125,-104.3896484375,-105.1220703125,-106.1962890625,-106.9775390625,-107.9541015625,-108.5888671875,-110.0537109375,-110.2001953125,-107.3681640625,-103.7060546875,-101.2158203125,-99.9951171875,-98.4326171875,-97.0654296875,-96.0888671875,-95.7958984375,-95.5517578125,-96.0400390625,-95.6982421875,-95.6494140625,-96.3818359375,-96.6259765625,-98.4814453125,-99.0673828125,-99.8974609375,-100.6787109375,-101.4599609375,-102.5830078125,-103.8525390625,-104.6826171875,-105.7568359375,-106.9775390625,-107.8564453125,-108.7353515625,-109.5654296875,-110.6884765625,-110.4931640625,-107.5634765625,-103.8525390625,-101.6552734375,-101.3623046875,-99.7509765625,-98.6279296875,-97.5537109375,-97.2119140625,-98.2373046875,-98.0419921875,-98.2861328125,-98.1884765625,-99.0185546875,-99.8486328125,-100.5322265625,-101.8505859375,-102.5341796875,-103.0224609375,-103.7548828125,-104.5849609375,-105.9033203125,-106.3916015625,-107.7587890625,-108.3935546875,-109.8095703125,-110.3466796875,-110.3955078125,-106.8310546875,-103.6083984375,-102.2900390625,-101.0205078125,-100.1904296875,-99.7021484375,-99.8974609375,-99.9951171875,-99.6044921875,-99.8974609375,-99.4091796875,-99.5556640625,-100.5810546875,-101.4599609375,-102.9248046875,-102.9736328125,-104.3408203125,-105.2685546875,-105.5615234375,-107.0751953125,-107.5634765625,-108.4912109375,-109.7607421875,-110.8837890625,-110.9326171875,-109.9560546875,-106.1474609375,-103.2177734375,-101.8505859375,-99.9951171875,-98.5302734375,-97.9443359375,-97.2119140625,-97.1142578125,-97.4560546875,-97.6025390625,-97.1630859375,-97.2607421875,-97.8466796875,-99.0673828125,-99.6533203125,-100.8251953125,-101.6552734375,-102.6318359375,-103.0712890625,-104.2919921875,-105.3662109375,-106.0009765625,-107.0263671875,-107.9541015625,-109.0283203125,-110.0048828125,-110.5908203125,-109.1259765625,-105.4150390625,-102.2412109375,-100.6298828125,-99.1650390625,-97.8955078125,-96.6259765625,-95.9423828125,-95.0634765625,-95.1611328125,-95.3076171875,-95.1611328125,-95.8447265625,-95.6982421875,-96.3330078125,-97.7978515625,-98.8232421875,-99.0185546875,-99.8486328125,-101.0205078125,-101.7529296875,-102.5830078125,-103.8037109375,-104.3896484375,-105.2197265625,-106.7333984375,-107.7099609375,-108.9794921875,-109.0283203125,-108.9306640625,-105.2197265625,-101.8505859375,-100.5322265625,-99.1650390625,-97.2119140625,-96.4794921875,-95.6982421875,-95.8447265625,-95.8935546875,-95.5029296875,-95.7470703125,-96.0888671875,-96.2353515625,-97.6513671875,-97.8955078125,-99.7509765625,-100.2880859375,-100.8251953125,-101.6552734375,-102.9248046875,-104.1455078125,-105.0244140625,-105.4638671875,-106.3427734375,-107.3681640625,-108.4912109375,-108.1494140625,-105.5126953125,-102.3876953125,-100.6298828125,-99.3115234375,-98.6767578125,-98.1396484375,-96.8212890625,-97.4560546875,-97.0166015625,-97.2119140625,-98.0419921875,-97.3583984375,-98.2861328125,-99.2626953125,-100.0927734375,-100.7275390625,-101.8994140625,-102.3876953125,-103.2666015625,-104.0966796875,-105.4638671875,-106.2451171875,-106.8310546875,-107.4658203125,-108.6865234375,-107.8564453125,-103.9013671875,-101.0693359375,-99.7021484375,-98.3349609375,-97.0654296875,-96.0400390625,-94.7705078125,-95.3076171875,-95.0634765625,-94.5263671875,-95.0634765625,-95.3564453125,-95.6494140625,-96.5771484375,-98.0419921875,-98.6767578125,-99.7998046875,-100.3369140625,-101.6552734375,-102.9248046875,-104.2919921875,-104.9755859375,-105.3662109375,-106.3916015625,-107.5146484375,-108.6376953125,-108.9306640625,-108.3935546875,-104.1943359375,-101.0205078125,-99.4580078125,-97.9443359375,-96.8701171875,-95.3076171875,-94.8681640625,-94.6728515625,-95.3076171875,-95.6982421875,-94.7216796875,-95.8935546875,-96.5771484375,-97.2119140625,-98.4326171875,-99.4580078125,-99.9462890625,-101.0693359375,-101.9482421875,-103.0712890625,-104.3408203125,-105.6591796875,-106.3427734375,-107.1240234375,-108.1494140625,-109.4677734375,-110.8349609375,-111.6650390625,-112.4951171875,-110.4931640625,-106.7333984375,-103.6572265625,-102.8759765625,-101.2646484375,-100.1416015625,-98.8720703125,-99.2138671875,-98.4814453125,-99.7509765625,-99.6533203125,-99.8486328125,-99.9462890625,-100.9716796875,-101.8505859375,-103.0224609375,-103.9990234375,-105.0244140625,-105.9033203125,-106.4404296875,-107.9052734375,-108.7353515625,-109.4189453125,-110.4931640625,-111.8115234375,-113.1298828125,-114.1064453125,-113.6669921875,-110.3466796875,-107.0263671875,-105.9521484375,-104.2919921875,-104.0478515625,-103.1689453125,-102.6318359375,-102.8271484375,-103.8037109375,-103.1689453125,-103.4619140625,-103.5595703125,-103.8525390625,-105.1708984375,-106.3916015625,-107.4169921875,-108.3447265625,-108.5400390625,-109.4677734375,-110.6884765625,-111.1767578125,-112.6904296875,-113.4228515625,-114.2041015625,-116.0107421875,-115.2294921875,-113.8134765625,-109.4189453125,-107.1240234375,-105.6103515625,-104.3408203125,-104.3896484375,-103.1201171875,-102.4853515625,-103.3154296875,-103.4619140625,-102.9736328125,-103.2177734375,-103.6083984375,-104.5849609375,-105.5126953125,-106.4892578125,-107.3681640625,-108.4423828125,-109.0771484375,-110.2001953125,-111.4697265625,-112.7880859375,-113.0322265625,-114.3017578125,-115.5712890625,-116.2060546875,-117.4267578125,-118.9892578125,-118.5498046875,-115.0830078125,-111.0302734375,-108.5400390625,-107.9052734375,-106.3427734375,-104.1455078125,-103.7060546875,-103.9013671875,-103.5595703125,-103.9990234375,-104.2919921875,-103.9990234375,-104.8291015625,-105.6591796875,-107.3193359375,-108.4912109375,-108.9306640625,-109.7119140625,-110.6396484375,-112.0556640625,-113.3740234375,-113.9111328125,-115.2294921875,-116.4501953125,-117.3291015625,-118.1591796875,-119.6728515625,-120.5029296875,-121.6259765625,-120.4541015625,-117.1826171875,-113.2275390625,-111.4697265625,-110.9814453125,-109.6142578125,-108.6865234375,-108.6376953125,-108.2470703125,-109.3212890625,-108.5888671875,-108.8818359375,-109.2236328125,-109.5166015625,-111.6162109375,-112.0068359375,-112.0068359375,-113.8134765625,-114.1064453125,-116.1572265625,-115.9130859375,-116.8896484375,-118.4033203125,-118.7939453125,-119.9658203125,-120.7958984375,-121.4306640625,-120.1123046875,-115.7666015625,-113.1298828125,-112.2509765625,-110.6396484375,-110.5419921875,-109.4677734375,-109.5654296875,-109.9072265625,-110.1513671875,-109.8095703125,-110.0048828125,-110.4931640625,-110.3955078125,-112.2021484375,-113.6669921875,-113.7646484375,-114.9853515625,-115.7177734375,-116.5478515625,-118.5009765625,-118.3544921875,-119.3310546875,-120.5517578125,-120.9423828125,-122.1142578125,-122.6025390625,-120.1123046875,-114.7412109375,-112.6904296875,-111.1767578125,-110.5419921875,-108.8818359375,-107.6123046875,-107.3681640625,-108.1005859375,-107.5634765625,-107.6123046875,-107.9541015625,-108.1982421875,-108.7353515625,-110.5908203125,-111.2255859375,-112.2998046875,-112.9345703125,-113.3740234375,-114.5458984375,-116.0107421875,-116.4501953125,-117.6220703125,-118.4033203125,-119.1357421875,-120.6494140625,-121.9677734375,-122.6513671875,-122.0654296875,-118.6474609375,-114.8876953125,-112.7880859375,-111.4697265625,-110.5419921875,-109.1259765625,-108.1494140625,-107.8564453125,-108.2958984375,-108.5888671875,-108.8330078125,-108.2470703125,-108.9306640625,-109.6630859375,-111.1767578125,-112.3974609375,-112.9833984375,-113.3740234375,-114.3017578125,-115.0830078125,-116.2060546875,-117.3291015625,-118.0126953125,-119.1357421875,-120.1123046875,-121.3330078125,-122.3095703125,-123.2861328125,-122.7978515625,-120.6005859375,-116.2548828125,-114.0576171875,-114.0087890625,-112.4951171875,-111.6650390625,-111.0302734375,-110.9814453125,-111.7138671875,-111.8115234375,-110.6884765625,-111.7626953125,-112.2021484375,-113.3251953125,-113.9599609375,-114.3505859375,-115.5712890625,-115.8154296875,-116.5966796875,-118.4033203125,-118.7939453125,-119.7216796875,-120.3564453125,-121.4306640625,-122.2607421875,-122.9443359375,-121.3330078125,-118.1591796875,-114.7900390625,-113.7158203125,-112.9345703125,-111.3720703125,-110.6396484375,-110.2001953125,-110.7373046875,-110.8837890625,-111.0302734375,-111.0302734375,-111.2744140625,-111.4208984375,-112.5439453125,-113.4228515625,-114.1064453125,-114.7900390625,-115.2783203125,-116.5966796875,-118.0126953125,-118.1591796875,-119.6728515625,-120.4541015625,-121.0400390625,-122.7001953125,-122.7001953125,-121.0888671875,-116.6943359375,-113.3740234375,-111.8115234375,-110.9326171875,-109.2724609375,-108.5888671875,-108.0029296875,-107.9052734375,-108.3935546875,-108.6376953125,-108.4912109375,-108.5888671875,-108.3447265625,-110.1513671875,-110.9326171875,-112.1533203125,-112.8857421875,-113.7158203125,-114.2041015625,-115.0341796875,-116.0595703125,-117.0361328125,-117.4755859375,-118.4033203125,-119.5263671875,-120.7958984375,-120.4052734375,-118.5498046875,-113.9599609375,-112.6416015625,-110.4931640625,-109.2724609375,-108.1494140625,-107.3681640625,-107.1240234375,-107.0751953125,-107.3193359375,-106.7822265625,-106.7333984375,-107.1728515625,-107.9052734375,-109.2236328125,-110.3955078125,-110.9814453125,-111.6162109375,-112.5927734375,-113.1298828125,-114.2529296875,-115.0830078125,-115.7666015625,-116.7919921875,-117.4267578125,-119.4775390625,-119.8681640625,-119.1357421875,-115.8154296875,-112.7392578125,-111.0791015625,-110.3466796875,-109.3212890625,-108.1494140625,-107.7099609375,-108.0517578125,-107.4658203125,-107.6611328125,-107.8564453125,-107.6611328125,-108.6865234375,-109.7607421875,-110.3466796875,-111.9091796875,-111.9091796875,-112.9345703125,-112.8369140625,-114.3017578125,-114.6435546875,-115.2294921875,-116.1083984375,-116.8896484375,-118.3056640625,-116.7919921875,-112.5439453125,-110.2978515625,-108.3447265625,-107.9541015625,-106.0986328125,-105.1220703125,-104.7802734375,-104.3408203125,-104.8779296875,-105.1220703125,-104.6337890625,-104.8779296875,-105.6103515625,-105.9521484375,-107.1728515625,-108.0517578125,-108.3935546875,-109.9072265625,-110.2978515625,-111.3720703125,-111.9580078125,-112.4951171875,-113.2763671875,-114.5947265625,-114.8388671875,-114.4970703125,-110.9814453125,-107.6611328125,-106.8310546875,-104.3408203125,-103.4130859375,-102.0947265625,-100.2880859375,-99.8974609375,-100.4833984375,-100.4345703125,-100.1904296875,-100.5810546875,-100.1904296875,-101.3134765625,-101.8017578125,-103.5107421875,-104.4873046875,-104.7314453125,-105.5615234375,-105.9033203125,-106.7822265625,-108.1982421875,-108.5400390625,-109.4677734375,-110.2001953125,-111.6650390625,-112.2021484375,-111.6650390625,-109.0771484375,-106.0009765625,-103.6572265625,-102.9736328125,-101.3134765625,-99.7998046875,-99.2138671875,-98.8720703125,-98.5791015625,-98.2373046875,-98.5791015625,-98.6279296875,-98.5302734375,-99.2138671875,-100.3369140625,-101.5087890625,-102.2900390625,-102.7294921875,-103.7060546875,-103.9990234375,-105.1708984375,-106.2939453125,-107.2216796875,-107.8564453125,-108.3447265625,-110.0048828125,-110.9326171875,-110.5908203125,-108.5400390625,-104.7802734375,-103.3154296875,-101.7529296875,-101.5576171875,-100.3857421875,-99.5068359375,-99.0673828125,-99.7998046875,-99.1162109375,-99.1162109375,-99.1650390625,-99.7509765625,-100.6298828125,-101.8505859375,-101.6552734375,-103.0712890625,-103.8525390625,-104.5361328125,-105.3662109375,-106.0498046875,-106.1474609375,-107.2705078125,-108.4423828125,-109.8095703125,-109.8583984375,-107.5634765625,-104.3896484375,-102.6318359375,-100.9716796875,-99.9462890625,-98.3837890625,-97.1630859375,-96.8212890625,-97.0166015625,-96.4794921875,-96.7724609375,-96.6748046875,-97.1142578125,-97.7490234375,-97.8955078125,-99.2626953125,-99.7509765625,-100.7275390625,-101.4111328125,-102.5341796875,-104.0478515625,-104.4873046875,-105.4150390625,-106.2451171875,-107.4658203125,-108.4423828125,-110.1513671875,-110.2490234375,-110.3466796875,-107.9052734375,-104.0966796875,-102.2412109375,-100.4833984375,-98.4326171875,-96.9677734375,-96.4794921875,-95.3564453125,-95.5029296875,-95.1123046875,-94.6728515625,-94.9169921875,-96.0888671875,-96.4306640625,-97.5048828125,-98.6279296875,-99.4580078125,-100.1904296875,-100.8251953125,-102.4853515625,-102.9248046875,-104.6826171875,-105.1708984375,-105.9033203125,-107.5146484375,-108.0029296875,-109.5166015625,-110.5419921875,-111.0791015625,-112.5439453125,-113.6669921875,-113.0810546875,-111.1279296875,-107.0751953125,-103.9990234375,-103.0712890625,-101.7529296875,-100.3857421875,-99.3603515625,-98.4326171875,-98.8232421875,-99.0673828125,-99.0185546875,-98.9208984375,-99.4091796875,-99.8974609375,-101.3623046875,-102.1923828125,-102.9248046875,-103.8525390625,-104.7802734375,-106.1474609375,-106.8310546875,-107.8564453125,-108.8818359375,-109.7119140625,-110.5419921875,-111.6650390625,-112.9833984375,-113.4228515625,-113.3740234375,-109.8583984375,-106.6357421875,-105.5126953125,-104.1455078125,-103.4130859375,-102.4853515625,-101.8505859375,-102.2412109375,-102.9736328125,-102.4853515625,-102.5341796875,-103.0224609375,-103.5107421875,-105.1708984375,-106.9775390625,-106.5380859375,-107.7099609375,-108.6376953125,-108.9306640625,-111.5673828125,-111.9091796875,-112.0556640625,-113.2275390625,-114.2041015625,-115.8642578125,-116.8896484375,-115.9619140625,-112.0556640625,-108.3935546875,-107.0751953125,-105.2685546875,-103.8525390625,-102.6806640625,-102.2412109375,-102.4365234375,-102.7294921875,-103.0224609375,-102.5830078125,-102.7783203125,-103.9013671875,-105.2197265625,-106.3916015625,-107.1240234375,-108.3935546875,-109.4189453125,-110.0537109375,-111.1767578125,-111.9091796875,-113.2763671875,-113.9111328125,-114.7412109375,-116.1572265625,-117.3779296875,-118.8916015625,-119.3310546875,-118.8916015625,-114.2529296875,-110.6884765625,-109.6630859375,-108.2958984375,-106.5869140625,-105.0732421875,-104.3896484375,-104.6826171875,-104.7802734375,-105.8056640625,-104.8779296875,-105.4150390625,-105.4150390625,-106.7333984375,-108.2470703125,-108.9794921875,-109.6142578125,-110.6884765625,-111.6650390625,-112.6904296875,-114.1064453125,-115.1806640625,-115.7177734375,-117.3291015625,-117.9150390625,-118.9892578125,-119.1357421875,-120.4052734375,-121.7724609375,-123.0419921875,-121.3818359375,-116.4013671875,-113.5693359375,-112.4462890625,-110.9814453125,-110.0537109375,-108.1982421875,-108.2958984375,-107.4658203125,-108.4912109375,-108.6376953125,-108.6865234375,-108.5400390625,-109.2236328125,-110.2978515625,-111.2255859375,-112.6416015625,-113.4228515625,-113.3740234375,-114.6923828125,-115.5712890625,-117.1826171875,-117.5244140625,-118.9892578125,-119.6240234375,-120.8447265625,-121.5283203125,-122.6513671875,-122.2607421875,-120.0634765625,-115.8154296875,-114.8876953125,-113.8134765625,-112.6416015625,-111.8603515625,-110.9814453125,-111.1767578125,-111.7138671875,-111.4697265625,-111.9580078125,-111.6162109375,-111.8115234375,-113.9111328125,-114.4970703125,-115.0341796875,-116.0107421875,-116.3037109375,-117.1826171875,-118.3544921875,-118.5986328125,-120.0634765625,-120.5029296875,-121.6748046875,-122.3095703125,-123.2373046875,-122.7978515625,-118.9404296875,-115.6201171875,-114.2529296875,-112.9833984375,-111.5673828125,-109.8095703125,-109.7119140625,-109.2724609375,-109.7607421875,-109.8583984375,-109.1748046875,-109.7607421875,-110.6396484375,-111.5185546875,-112.4951171875,-113.5693359375,-114.0576171875,-114.7900390625,-115.5712890625,-116.5966796875,-118.1103515625,-118.4521484375,-119.3798828125,-120.7470703125,-121.8701171875,-122.5048828125,-123.4326171875,-124.2626953125,-122.5537109375,-118.8916015625,-116.0595703125,-114.0087890625,-112.3974609375,-111.0302734375,-109.6142578125,-109.2236328125,-108.6376953125,-109.2724609375,-109.0771484375,-108.3447265625,-109.2236328125,-109.6142578125,-110.4443359375,-111.6650390625,-112.2998046875,-112.7880859375,-113.9111328125,-114.4970703125,-115.9619140625,-116.7919921875,-117.5244140625,-118.4033203125,-119.8193359375,-120.3564453125,-121.2353515625,-122.3583984375,-123.0908203125,-124.3603515625,-122.6025390625,-118.3544921875,-115.4736328125,-114.1552734375,-112.4951171875,-111.4208984375,-109.3701171875,-109.1748046875,-109.0283203125,-109.6630859375,-109.1748046875,-109.2724609375,-109.7607421875,-110.5419921875,-111.1279296875,-112.2998046875,-113.3251953125,-114.2041015625,-114.7412109375,-115.4736328125,-116.6455078125,-117.2802734375,-118.1591796875,-119.0869140625,-119.9658203125,-121.1376953125,-121.4794921875,-123.1396484375,-121.9677734375,-119.4775390625,-116.1572265625,-114.3017578125,-114.1552734375,-112.2998046875,-111.4208984375,-111.4697265625,-111.4208984375,-111.5185546875,-111.1767578125,-111.6650390625,-112.2021484375,-112.8857421875,-113.1787109375,-114.6923828125,-114.9365234375,-115.8642578125,-116.5478515625,-116.6455078125,-118.1591796875,-118.9892578125,-120.4052734375,-120.2099609375,-121.1376953125,-121.9677734375,-123.6767578125,-123.0908203125,-120.3076171875,-116.5478515625,-115.2294921875,-113.4228515625,-111.9091796875,-110.4931640625,-110.1513671875,-110.2001953125,-109.8095703125,-110.2490234375,-109.9560546875,-110.0048828125,-110.1025390625,-111.7138671875,-112.3486328125,-113.1787109375,-114.1064453125,-114.4970703125,-115.4736328125,-116.4990234375,-116.9873046875,-118.6962890625,-118.9404296875,-120.1611328125,-121.4306640625,-121.8701171875,-123.0419921875,-124.1650390625,-123.3837890625,-120.2587890625,-116.4990234375,-114.2529296875,-113.3740234375,-111.6162109375,-110.2001953125,-109.2724609375,-108.4423828125,-108.2470703125,-109.0771484375,-108.5888671875,-108.7841796875,-109.3701171875,-110.5908203125,-111.3232421875,-112.3486328125,-113.1787109375,-113.6669921875,-114.2041015625,-115.0830078125,-115.7666015625,-116.7431640625,-118.2080078125,-118.6474609375,-119.3310546875,-120.1123046875,-121.6259765625,-122.2119140625,-122.0654296875,-119.9658203125,-116.7431640625,-114.1552734375,-113.0810546875,-111.4208984375,-110.4931640625,-109.4189453125,-108.6865234375,-109.0283203125,-109.2236328125,-109.4677734375,-108.9306640625,-109.6142578125,-110.4443359375,-110.7861328125,-111.8603515625,-112.8857421875,-114.0087890625,-114.4482421875,-115.3759765625,-116.2548828125,-116.5478515625,-118.0615234375,-118.6962890625,-119.1357421875,-120.5517578125,-121.4306640625,-121.7724609375,-119.7705078125,-115.4736328125,-114.4970703125,-113.1298828125,-111.5673828125,-110.9326171875,-110.3466796875,-110.4931640625,-110.5908203125,-110.2978515625,-110.2978515625,-110.0537109375,-110.2978515625,-111.5185546875,-112.2998046875,-113.1787109375,-113.4228515625,-115.1806640625,-115.4248046875,-115.8154296875,-116.7919921875,-117.6220703125,-118.5009765625,-119.3798828125,-120.3564453125,-121.1376953125,-119.2822265625,-115.7666015625,-113.1787109375,-111.9091796875,-110.2490234375,-109.1748046875,-107.6123046875,-106.9775390625,-107.6123046875,-107.2705078125,-106.9775390625,-107.1240234375,-107.4169921875,-108.4912109375,-109.1259765625,-110.1025390625,-111.3720703125,-111.4697265625,-112.5439453125,-113.9111328125,-114.5947265625,-115.4248046875,-116.0595703125,-116.5966796875,-118.3544921875,-118.6962890625,-119.8193359375,-120.7958984375,-120.3076171875,-117.1337890625,-113.8623046875,-111.2255859375,-110.0537109375,-108.7841796875,-106.8798828125,-106.0498046875,-104.4873046875,-105.6103515625,-105.5126953125,-105.1708984375,-106.0009765625,-105.5126953125,-106.8310546875,-107.9052734375,-108.9794921875,-109.9560546875,-110.2978515625,-110.9814453125,-112.0068359375,-112.7880859375,-114.5458984375,-114.9853515625,-115.9619140625,-117.4267578125,-117.6220703125,-118.8916015625,-120.4052734375,-120.6494140625,-120.0634765625,-117.1337890625,-113.4228515625,-111.9091796875,-110.7373046875,-109.3701171875,-108.0517578125,-106.9775390625,-107.3681640625,-106.9775390625,-106.9775390625,-106.9775390625,-106.9287109375,-107.4658203125,-108.2958984375,-109.9560546875,-110.3466796875,-111.0791015625,-111.8603515625,-112.9345703125,-113.1787109375,-114.7412109375,-115.4248046875,-116.5478515625,-116.9384765625,-117.9150390625,-119.2822265625,-120.1123046875,-118.8427734375,-115.6201171875,-112.0068359375,-111.0302734375,-110.2001953125,-109.3212890625,-107.9541015625,-107.4169921875,-108.0517578125,-108.1005859375,-107.6611328125,-107.4658203125,-107.4658203125,-108.1982421875,-109.9560546875,-111.3232421875,-112.0556640625,-112.5439453125,-113.7646484375,-113.8134765625,-115.0830078125,-115.5224609375,-116.4990234375,-117.4267578125,-118.3056640625,-119.4287109375,-118.9404296875,-116.3525390625,-112.0068359375,-110.3955078125,-108.8818359375,-107.3681640625,-105.6591796875,-105.0244140625,-104.3896484375,-104.6337890625,-104.3896484375,-104.6826171875,-105.1220703125,-105.3173828125,-105.8056640625,-107.1728515625,-108.2958984375,-109.2724609375,-109.5166015625,-110.4931640625,-112.0556640625,-113.1787109375,-113.5693359375,-114.8876953125,-115.5712890625,-116.7431640625,-118.4521484375,-118.7939453125,-117.9150390625,-113.8134765625,-110.5908203125,-108.5400390625,-107.6123046875,-105.7568359375,-104.6826171875,-102.9248046875,-103.2177734375,-104.0966796875,-103.8525390625,-103.8525390625,-104.1455078125,-104.8779296875,-105.8544921875,-106.7822265625,-107.9541015625,-108.5400390625,-109.8095703125,-110.4931640625,-111.5673828125,-112.4951171875,-113.7158203125,-114.5458984375,-115.8154296875,-116.4501953125,-118.4033203125,-118.1103515625,-116.8408203125,-112.3486328125,-109.6142578125,-108.4423828125,-107.0751953125,-106.3916015625,-105.0732421875,-105.0732421875,-105.9033203125,-106.0009765625,-105.2197265625,-106.2939453125,-106.4892578125,-107.0751953125,-108.3447265625,-108.9306640625,-110.0537109375,-110.5908203125,-111.1767578125,-112.3486328125,-112.9833984375,-114.3017578125,-115.1318359375,-116.0595703125,-117.4755859375,-116.7431640625,-114.4482421875,-110.7373046875,-108.8818359375,-108.1005859375,-106.8310546875,-105.3662109375,-105.4150390625,-105.1220703125,-104.8291015625,-104.7314453125,-105.0732421875,-104.8779296875,-105.5126953125,-106.4892578125,-107.6611328125,-108.5888671875,-108.9794921875,-110.5908203125,-111.1279296875,-111.5185546875,-112.5439453125,-113.1298828125,-113.7646484375,-114.8876953125,-116.3037109375,-114.7900390625,-110.9326171875,-108.1005859375,-106.4892578125,-105.1708984375,-102.5341796875,-101.8994140625,-100.7275390625,-100.8251953125,-101.3623046875,-101.4111328125,-101.4599609375,-101.8994140625,-101.8505859375,-102.4853515625,-103.9501953125,-104.7802734375,-106.0498046875,-106.6357421875,-107.6611328125,-108.6865234375,-109.7607421875,-110.6884765625,-111.7626953125,-112.7392578125,-113.8623046875,-115.1318359375,-114.4482421875,-111.0302734375,-107.6611328125,-105.8056640625,-104.4384765625,-102.7294921875,-101.8994140625,-100.2392578125,-99.8486328125,-99.7509765625,-99.9951171875,-99.8974609375,-99.7021484375,-100.9716796875,-101.4599609375,-102.5830078125,-103.6572265625,-104.2431640625,-105.6103515625,-106.0009765625,-107.6611328125,-109.0771484375,-110.1025390625,-111.1279296875,-111.9580078125,-113.0810546875,-114.7900390625,-115.5712890625,-116.4013671875,-117.0361328125,-114.3994140625,-110.3466796875,-108.4423828125,-107.1240234375,-105.8056640625,-104.2919921875,-102.3876953125,-102.6806640625,-102.3876953125,-102.9248046875,-102.5830078125,-102.2412109375,-103.8037109375,-103.5107421875,-105.4638671875,-106.4892578125,-107.1240234375,-108.0029296875,-109.0771484375,-109.9072265625,-111.1767578125,-111.8603515625,-113.2763671875,-113.3251953125,-114.9365234375,-116.0595703125,-116.8896484375,-116.2060546875,-113.4228515625,-110.0048828125,-108.6376953125,-106.7822265625,-105.8544921875,-104.6826171875,-103.6572265625,-104.5361328125,-103.9990234375,-104.1455078125,-104.5849609375,-103.9013671875,-105.5126953125,-106.1474609375,-107.5146484375,-107.7099609375,-108.9794921875,-109.9072265625,-110.8837890625,-112.2998046875,-112.9833984375,-114.2041015625,-114.6923828125,-115.7177734375,-117.3291015625,-118.1591796875,-116.9873046875,-112.9833984375,-110.4931640625,-108.5888671875,-107.2216796875,-104.9755859375,-103.6083984375,-103.6572265625,-102.9736328125,-103.1201171875,-103.1689453125,-103.3154296875,-103.9990234375,-104.6337890625,-106.1962890625,-107.2705078125,-107.9052734375,-109.3701171875,-110.5419921875,-111.5185546875,-112.6904296875,-113.8134765625,-114.3994140625,-115.6689453125,-116.3525390625,-117.9638671875,-119.1845703125,-120.0634765625,-120.8935546875,-119.6240234375,-115.4248046875,-112.6904296875,-110.4931640625,-109.6630859375,-107.5634765625,-106.9287109375,-105.5126953125,-105.8056640625,-105.9033203125,-106.4404296875,-106.0009765625,-106.6845703125,-107.6611328125,-108.4423828125,-110.1025390625,-111.5673828125,-112.6904296875,-113.0810546875,-114.4970703125,-115.5224609375,-117.4267578125,-118.5498046875,-118.8916015625,-120.4052734375,-121.6259765625,-122.5537109375,-123.0908203125,-124.7998046875,-126.5087890625,-125.5810546875,-123.6279296875,-118.7451171875,-116.6943359375,-115.3271484375,-114.4482421875,-113.1787109375,-112.3974609375,-112.2998046875,-112.6416015625,-113.2275390625,-112.8857421875,-113.4228515625,-113.9111328125,-115.0341796875,-116.2060546875,-117.4267578125,-117.9150390625,-118.5986328125,-120.1611328125,-121.2353515625,-121.7236328125,-123.4326171875,-124.1650390625,-125.1904296875,-126.4111328125,-127.1923828125,-128.4130859375,-127.4365234375,-122.6513671875,-119.8681640625,-117.7685546875,-117.2314453125,-116.2060546875,-114.9853515625,-114.7412109375,-115.2783203125,-115.2783203125,-115.4736328125,-115.5224609375,-115.9130859375,-117.2802734375,-118.1103515625,-119.5263671875,-120.6494140625,-121.2353515625,-122.1142578125,-122.5048828125,-123.7744140625,-125.1904296875,-126.0693359375,-127.1435546875,-128.2177734375,-129.3896484375,-131.1962890625,-130.0244140625,-127.7783203125,-122.6025390625,-120.0634765625,-118.4521484375,-117.3291015625,-115.5712890625,-115.5712890625,-114.0087890625,-114.7412109375,-115.9619140625,-114.7900390625,-115.8154296875,-116.0107421875,-116.7919921875,-118.5009765625,-119.8681640625,-119.8681640625,-120.9423828125,-122.5048828125,-123.4326171875,-124.7509765625,-125.6298828125,-126.4599609375,-127.3876953125,-128.5595703125,-130.1220703125,-131.1474609375,-131.7822265625,-132.1728515625,-128.2666015625,-123.5302734375,-121.0400390625,-120.4052734375,-118.1591796875,-117.2802734375,-116.4501953125,-115.7177734375,-117.0849609375,-117.9150390625,-117.6708984375,-117.4267578125,-117.0849609375,-118.7451171875,-120.2099609375,-121.9189453125,-122.5537109375,-122.8466796875,-124.3603515625,-125.0439453125,-126.5087890625,-127.3876953125,-128.4619140625,-129.6337890625,-130.9033203125,-131.9287109375,-132.5634765625,-133.2958984375,-131.1474609375,-125.6298828125,-122.8955078125,-122.2607421875,-121.3330078125,-120.6494140625,-120.1611328125,-120.0146484375,-121.1376953125,-121.0888671875,-120.6982421875,-120.9423828125,-121.8701171875,-122.6513671875,-123.0419921875,-124.1162109375,-125.1904296875,-125.9228515625,-126.8505859375,-127.9248046875,-128.5107421875,-130.0244140625,-130.6103515625,-131.5380859375,-132.5146484375,-132.9052734375,-131.5869140625,-126.3623046875,-123.4326171875,-122.7001953125,-121.6748046875,-121.0400390625,-119.5751953125,-119.5751953125,-120.2099609375,-120.5029296875,-120.2099609375,-120.6005859375,-120.7470703125,-122.1630859375,-122.7490234375,-123.8232421875,-124.1650390625,-125.3857421875,-126.2158203125,-126.9482421875,-128.3642578125,-129.6337890625,-129.8291015625,-131.1962890625,-132.3681640625,-132.8564453125,-133.7841796875,-131.5869140625,-126.4111328125,-123.7744140625,-122.1142578125,-121.2353515625,-119.6728515625,-118.4033203125,-117.5244140625,-118.2568359375,-119.0380859375,-118.5986328125,-118.9404296875,-118.6474609375,-120.1611328125,-120.8935546875,-122.3583984375,-123.5302734375,-124.0673828125,-125.0439453125,-125.7275390625,-126.6552734375,-127.8759765625,-128.9501953125,-130.2685546875,-130.8544921875,-131.5380859375,-133.0029296875,-133.7841796875,-133.2958984375,-129.8779296875,-125.6298828125,-123.9208984375,-122.5537109375,-120.6494140625,-119.7216796875,-118.6962890625,-118.5498046875,-118.8427734375,-119.5263671875,-119.2333984375,-119.0869140625,-120.5029296875,-121.0400390625,-122.3095703125,-123.1884765625,-124.1650390625,-124.7021484375,-124.9951171875,-126.4111328125,-127.5341796875,-128.5595703125,-129.0478515625,-130.2685546875,-131.2939453125,-132.8076171875,-133.4423828125,-133.3935546875,-130.9521484375,-126.3623046875,-125.1904296875,-123.5302734375,-122.6025390625,-121.7724609375,-120.9912109375,-120.8447265625,-121.8212890625,-121.5283203125,-121.7236328125,-121.7236328125,-121.6748046875,-123.1396484375,-123.7744140625,-124.5068359375,-125.5810546875,-126.3134765625,-126.8994140625,-127.7783203125,-128.6572265625,-129.3896484375,-130.0732421875,-131.2939453125,-132.0263671875,-132.1728515625,-130.4150390625,-125.8251953125,-123.4326171875,-121.8212890625,-121.0400390625,-119.0869140625,-118.4033203125,-118.4033203125,-118.7451171875,-119.1845703125,-118.9404296875,-118.5986328125,-118.9892578125,-120.7958984375,-121.9677734375,-122.5048828125,-123.9208984375,-124.1162109375,-125.2880859375,-126.8994140625,-127.1435546875,-128.7060546875,-129.3896484375,-129.9755859375,-131.3916015625,-132.0751953125,-131.7333984375,-128.6083984375,-123.9697265625,-121.5771484375,-120.7958984375,-119.9658203125,-118.5986328125,-116.2060546875,-116.3037109375,-116.6455078125,-116.9384765625,-117.0361328125,-116.4990234375,-116.9873046875,-118.7451171875,-119.9169921875,-120.5517578125,-121.6748046875,-121.7236328125,-123.4814453125,-124.4580078125,-125.3857421875,-126.9482421875,-127.2412109375,-128.0712890625,-129.7314453125,-130.9033203125,-131.5869140625,-132.0263671875,-130.8056640625,-125.8251953125,-122.9443359375,-121.1376953125,-120.4052734375,-118.8916015625,-117.2314453125,-116.9384765625,-116.8408203125,-117.8662109375,-117.1337890625,-117.4267578125,-117.7197265625,-118.6962890625,-120.2099609375,-121.2841796875,-121.3818359375,-122.4072265625,-123.4326171875,-124.0673828125,-125.7275390625,-126.3623046875,-126.6064453125,-128.2666015625,-129.1455078125,-130.4150390625,-131.5380859375,-130.8056640625,-127.4853515625,-123.5791015625,-121.7724609375,-121.0888671875,-119.6240234375,-118.7451171875,-119.3310546875,-119.8193359375,-119.8681640625,-119.4775390625,-119.3798828125,-119.3798828125,-120.1123046875,-121.5771484375,-122.1142578125,-123.2373046875,-123.8232421875,-124.4580078125,-125.3369140625,-126.8994140625,-126.8994140625,-128.2666015625,-129.2431640625,-129.9267578125,-130.9521484375,-130.2197265625,-125.9228515625,-121.8212890625,-120.8447265625,-119.5263671875,-117.9638671875,-116.3525390625,-116.1083984375,-116.5966796875,-115.2294921875,-116.1572265625,-116.1083984375,-116.2060546875,-117.1826171875,-118.1591796875,-119.0869140625,-120.7958984375,-121.5283203125,-121.9677734375,-123.4814453125,-124.3115234375,-124.8974609375,-125.8740234375,-126.5576171875,-127.7294921875,-128.9501953125,-129.7802734375,-129.8291015625,-126.1669921875,-121.7236328125,-119.1357421875,-118.4033203125,-116.8408203125,-115.1318359375,-114.1064453125,-112.6416015625,-113.1298828125,-113.9111328125,-113.7646484375,-114.1064453125,-114.3505859375,-115.0830078125,-116.8408203125,-117.6708984375,-118.6962890625,-119.2822265625,-120.9423828125,-121.7724609375,-122.6513671875,-123.5791015625,-125.1416015625,-125.9228515625,-126.5576171875,-127.7783203125,-128.9013671875,-130.0244140625,-130.5615234375,-129.7802734375,-124.7021484375,-121.8701171875,-120.3076171875,-118.4033203125,-116.7919921875,-116.3037109375,-114.9365234375,-115.0341796875,-115.6201171875,-115.3759765625,-115.5712890625,-115.6201171875,-116.5478515625,-118.2080078125,-118.9892578125,-120.4541015625,-121.1376953125,-121.7236328125,-123.3837890625,-123.1396484375,-124.4091796875,-125.7763671875,-126.7041015625,-127.2412109375,-128.7548828125,-129.2431640625,-130.3173828125,-128.8037109375,-124.2138671875,-122.3095703125,-120.5029296875,-120.0146484375,-118.5009765625,-117.6220703125,-117.3291015625,-117.8662109375,-118.3544921875,-118.2080078125,-117.7685546875,-118.5498046875,-119.5751953125,-120.6982421875,-121.9189453125,-122.0654296875,-123.1884765625,-124.2138671875,-125.3369140625,-126.3134765625,-126.8017578125,-127.7294921875,-128.7548828125,-129.4873046875,-130.6103515625,-131.1474609375,-130.6103515625,-125.3857421875,-122.4560546875,-120.6982421875,-119.0869140625,-117.9638671875,-116.3525390625,-115.9619140625,-115.9619140625,-116.0107421875,-116.2060546875,-115.6201171875,-116.4501953125,-117.4755859375,-118.2568359375,-120.1123046875,-120.9423828125,-121.1865234375,-122.6513671875,-122.7978515625,-124.1162109375,-125.7763671875,-125.5810546875,-127.3876953125,-127.6318359375,-128.7548828125,-130.3173828125,-130.7080078125,-131.7333984375,-132.8564453125,-129.8291015625,-125.3369140625,-121.8212890625,-120.2099609375,-119.0869140625,-117.2802734375,-116.3037109375,-115.6689453125,-115.3271484375,-116.0595703125,-115.7666015625,-115.2294921875,-116.1572265625,-116.4990234375,-118.1103515625,-119.3798828125,-120.1611328125,-121.0400390625,-122.0654296875,-122.8466796875,-123.7744140625,-124.7998046875,-126.3134765625,-127.1923828125,-127.9248046875,-129.0478515625,-129.9267578125,-131.2939453125,-132.2705078125,-133.3447265625,-134.5166015625,-135.9814453125,-136.9091796875,-134.9560546875,-129.6337890625,-126.0205078125,-124.7021484375,-123.2373046875,-121.2353515625,-120.0634765625,-118.7451171875,-119.0869140625,-119.4287109375,-119.3798828125,-119.3798828125,-120.3564453125,-120.9423828125,-121.1865234375,-122.7978515625,-123.7255859375
