PPG_subj_04,72,M,Y,Diabetic (Type 2),96,33.9558,Forehead,0.185546875,0.185546875,0.185546875,0.185546875,0.185546875,0.185546875,91.6357421875,-25.3955078125,-26.0302734375,-26.0302734375,-26.9091796875,-27.3974609375,-28.2275390625,-28.5205078125,-27.3486328125,-26.8603515625,-25.9326171875,-24.9072265625,-23.1005859375,-21.5869140625,-20.9521484375,-19.2919921875,-19.1455078125,-18.8525390625,-18.8525390625,-19.1455078125,-18.6083984375,-19.7314453125,-19.7802734375,-20.3173828125,-20.1220703125,-21.0498046875,-21.6845703125,-22.0263671875,-22.8076171875,-23.2470703125,-23.5400390625,-24.5654296875,-25.3955078125,-25.5908203125,-26.3720703125,-26.1767578125,-26.8603515625,-27.5439453125,-27.8369140625,-29.0576171875,-27.3486328125,-27.3974609375,-26.3720703125,-25.1025390625,-23.5400390625,-22.6123046875,-20.8056640625,-20.1220703125,-19.2431640625,-19.3408203125,-18.5595703125,-18.2666015625,-18.8525390625,-18.9501953125,-19.5849609375,-19.5849609375,-20.2685546875,-21.0498046875,-22.1240234375,-22.1728515625,-22.5146484375,-23.7841796875,-23.6865234375,-24.7119140625,-25.2001953125,-25.7373046875,-26.5673828125,-27.3486328125,-27.6416015625,-28.3740234375,-28.7158203125,-28.7646484375,-28.6669921875,-27.2509765625,-26.2744140625,-25.7861328125,-23.9306640625,-22.3193359375,-21.5869140625,-20.2685546875,-19.7314453125,-19.8779296875,-18.9990234375,-19.3408203125,-19.2431640625,-19.6826171875,-20.8544921875,-20.8544921875,-21.2451171875,-21.9287109375,-22.8076171875,-23.1982421875,-23.9794921875,-24.5654296875,-24.9560546875,-26.0791015625,-26.3232421875,-27.1044921875,-28.0322265625,-28.4716796875,-28.7646484375,-29.3505859375,-30.4736328125,-30.2783203125,-31.1083984375,-29.4482421875,-28.5693359375,-27.6904296875,-26.9091796875,-24.7119140625,-23.4423828125,-22.7587890625,-22.0263671875,-22.3193359375,-21.4404296875,-22.0263671875,-21.8310546875,-21.6845703125,-22.9052734375,-22.8564453125,-23.5400390625,-24.2724609375,-24.8583984375,-25.2490234375,-26.3720703125,-27.2021484375,-27.7880859375,-28.7646484375,-28.6181640625,-29.9853515625,-30.2783203125,-30.6201171875,-31.1083984375,-31.8896484375,-32.0849609375,-32.5244140625,-32.4755859375,-31.5966796875,-30.5224609375,-29.1552734375,-28.6669921875,-26.2255859375,-25.4931640625,-24.1259765625,-23.8330078125,-23.1982421875,-23.3447265625,-23.1982421875,-23.0517578125,-23.6376953125,-23.9794921875,-24.5654296875,-24.8583984375,-25.8837890625,-26.7626953125,-27.4462890625,-28.0810546875,-28.1787109375,-29.6435546875,-29.9365234375,-31.2548828125,-31.4990234375,-32.6708984375,-32.5244140625,-33.1591796875,-33.8916015625,-34.8193359375,-34.7705078125,-35.2099609375,-34.4775390625,-33.7939453125,-32.3779296875,-31.4990234375,-29.9365234375,-28.1787109375,-27.1533203125,-26.3232421875,-26.5185546875,-26.3232421875,-25.7373046875,-25.6396484375,-25.7861328125,-26.1767578125,-26.8603515625,-27.3974609375,-27.9833984375,-28.4228515625,-29.4970703125,-29.6435546875,-30.0341796875,-31.2548828125,-31.6455078125,-32.9150390625,-33.0126953125,-33.8427734375,-34.1845703125,-34.3798828125,-35.3564453125,-35.2587890625,-36.0888671875,-36.7724609375,-35.9912109375,-35.3564453125,-34.2333984375,-33.1591796875,-31.3037109375,-29.8388671875,-28.3740234375,-27.9833984375,-27.6904296875,-27.2509765625,-27.3974609375,-27.0068359375,-27.4951171875,-28.1787109375,-28.4716796875,-29.3994140625,-28.8134765625,-29.8388671875,-30.3759765625,-30.4736328125,-31.4990234375,-32.5732421875,-33.2568359375,-33.3544921875,-34.3798828125,-34.1357421875,-35.1123046875,-35.8447265625,-35.9912109375,-36.5283203125,-37.0654296875,-36.9189453125,-36.6259765625,-35.6005859375,-34.9169921875,-33.7939453125,-31.9384765625,-30.1806640625,-29.3505859375,-28.2275390625,-27.2509765625,-27.8369140625,-27.1533203125,-27.1044921875,-27.9833984375,-28.2275390625,-28.2275390625,-28.9111328125,-29.9853515625,-30.3759765625,-31.4013671875,-31.3525390625,-31.4990234375,-32.6708984375,-33.0615234375,-33.7939453125,-33.1103515625,-34.7216796875,-34.6240234375,-35.8447265625,-36.9189453125,-37.5537109375,-38.6767578125,-37.5048828125,-37.2607421875,-36.0888671875,-35.4052734375,-33.9404296875,-32.4755859375,-30.4736328125,-29.2529296875,-28.1787109375,-28.1787109375,-28.0322265625,-27.2021484375,-27.4951171875,-27.3974609375,-28.3740234375,-28.6669921875,-29.1064453125,-29.6435546875,-30.1806640625,-31.0107421875,-31.6455078125,-32.0361328125,-33.2568359375,-33.7451171875,-34.7705078125,-35.1123046875,-35.9423828125,-36.5283203125,-37.4072265625,-37.4560546875,-38.4814453125,-38.9208984375,-38.9208984375,-37.8466796875,-36.9677734375,-35.7470703125,-34.3798828125,-32.8662109375,-31.3525390625,-30.3271484375,-30.3759765625,-29.7900390625,-29.7900390625,-30.3271484375,-29.9853515625,-30.7177734375,-30.8642578125,-31.1083984375,-31.8408203125,-32.5244140625,-33.2080078125,-34.8681640625,-35.0146484375,-35.5029296875,-36.2841796875,-36.9189453125,-37.9443359375,-38.6767578125,-38.6767578125,-39.1162109375,-40.5810546875,-41.3623046875,-41.5087890625,-41.7041015625,-41.1181640625,-39.1650390625,-38.8232421875,-37.6513671875,-36.7724609375,-34.5263671875,-33.3056640625,-32.9638671875,-33.2568359375,-32.7685546875,-32.4755859375,-33.5498046875,-33.6962890625,-33.5986328125,-34.2822265625,-35.0634765625,-35.9912109375,-36.2353515625,-37.5537109375,-37.9443359375,-38.6279296875,-38.3349609375,-39.2138671875,-40.7763671875,-41.0205078125,-41.5087890625,-42.2412109375,-42.3876953125,-42.7294921875,-44.0478515625,-44.1455078125,-43.8037109375,-42.9248046875,-42.7783203125,-41.3134765625,-40.1904296875,-39.2626953125,-37.2119140625,-36.4306640625,-35.8447265625,-35.6982421875,-36.0400390625,-35.5517578125,-35.2587890625,-35.4541015625,-35.8935546875,-36.7724609375,-36.7724609375,-37.8466796875,-38.4326171875,-38.3349609375,-38.9697265625,-40.0439453125,-40.8251953125,-41.0205078125,-41.8994140625,-42.1435546875,-42.6318359375,-43.4130859375,-43.9013671875,-44.8779296875,-45.1220703125,-44.8779296875,-45.7080078125,-44.8779296875,-44.2431640625,-42.9736328125,-41.6552734375,-39.8486328125,-38.2861328125,-38.1396484375,-37.3095703125,-37.3095703125,-37.3095703125,-36.7236328125,-37.2607421875,-37.9931640625,-37.5048828125,-37.9443359375,-38.3837890625,-39.0673828125,-38.8720703125,-40.1904296875,-40.4345703125,-41.3134765625,-41.5087890625,-42.1435546875,-43.4619140625,-42.8271484375,-44.1455078125,-44.5849609375,-45.5615234375,-45.7080078125,-46.2451171875,-47.0751953125,-45.9521484375,-45.1708984375,-44.5849609375,-43.7060546875,-42.1923828125,-40.4833984375,-39.8974609375,-38.5791015625,-38.1396484375,-37.9443359375,-37.3583984375,-37.4560546875,-37.4560546875,-37.5537109375,-38.1884765625,-38.2861328125,-38.8720703125,-39.9951171875,-40.1416015625,-40.5810546875,-41.4111328125,-42.0947265625,-42.9248046875,-42.9736328125,-44.4384765625,-44.9267578125,-45.1708984375,-45.5615234375,-45.8056640625,-46.6845703125,-47.4658203125,-47.4169921875,-47.6611328125,-47.2216796875,-46.4404296875,-45.5126953125,-44.1455078125,-42.1435546875,-40.7275390625,-39.6044921875,-38.3349609375,-38.3349609375,-37.8466796875,-38.0908203125,-37.4072265625,-38.0419921875,-38.0908203125,-37.6513671875,-38.6279296875,-38.9208984375,-39.8974609375,-40.2392578125,-40.7275390625,-41.1669921875,-41.9482421875,-42.7783203125,-43.5107421875,-43.7548828125,-44.7314453125,-45.1220703125,-45.1220703125,-46.2451171875,-46.7822265625,-47.5146484375,-47.4169921875,-48.1494140625,-47.5146484375,-46.0498046875,-45.8544921875,-44.0478515625,-42.5830078125,-41.1181640625,-39.6044921875,-39.5068359375,-38.8232421875,-38.6279296875,-38.1396484375,-38.2373046875,-38.7255859375,-39.0185546875,-38.7744140625,-39.4580078125,-40.1904296875,-40.9716796875,-40.8251953125,-41.7041015625,-42.3876953125,-42.9248046875,-43.8037109375,-43.9990234375,-45.4638671875,-45.1708984375,-45.6103515625,-46.3427734375,-47.3193359375,-47.7099609375,-48.2958984375,-48.8330078125,-48.4423828125,-47.2216796875,-46.3916015625,-44.8291015625,-43.5107421875,-42.2900390625,-40.6787109375,-39.6533203125,-39.4580078125,-39.2626953125,-38.8232421875,-39.0185546875,-39.1650390625,-39.8486328125,-39.6044921875,-40.0439453125,-40.8740234375,-41.3134765625,-41.6552734375,-42.5341796875,-42.7783203125,-43.4619140625,-43.4130859375,-45.0732421875,-45.8056640625,-45.4638671875,-46.8310546875,-47.0751953125,-47.8076171875,-48.0029296875,-48.9794921875,-48.7841796875,-48.7841796875,-48.0029296875,-46.5869140625,-45.6591796875,-44.8291015625,-42.5830078125,-41.1669921875,-39.9462890625,-39.1650390625,-39.2138671875,-39.0185546875,-38.7744140625,-38.5791015625,-38.3349609375,-38.9208984375,-39.6044921875,-39.8974609375,-40.4833984375,-41.4111328125,-41.5576171875,-42.3876953125,-42.9736328125,-43.6572265625,-44.2919921875,-45.1220703125,-46.0498046875,-46.4892578125,-47.0751953125,-47.4658203125,-47.7587890625,-48.2958984375,-48.7353515625,-48.8330078125,-46.6845703125,-45.5615234375,-44.4873046875,-43.5107421875,-41.9970703125,-40.2880859375,-39.4580078125,-39.5068359375,-40.2392578125,-40.4833984375,-40.2392578125,-40.3857421875,-40.5322265625,-41.8017578125,-41.1669921875,-41.8994140625,-42.7294921875,-43.1689453125,-43.4619140625,-44.1455078125,-44.7802734375,-45.5126953125,-46.0498046875,-46.8310546875,-47.2705078125,-48.4423828125,-48.3935546875,-48.8330078125,-49.8095703125,-50.5419921875,-49.9072265625,-48.8330078125,-47.7587890625,-46.5380859375,-45.4150390625,-44.7314453125,-43.4130859375,-42.1435546875,-41.7529296875,-41.4599609375,-41.3134765625,-41.8017578125,-41.5087890625,-41.9482421875,-42.5341796875,-42.4853515625,-43.5107421875,-44.4873046875,-43.9990234375,-45.1220703125,-45.3662109375,-46.0986328125,-46.7822265625,-47.4658203125,-47.5146484375,-48.4423828125,-49.1259765625,-49.9560546875,-49.8095703125,-50.1513671875,-51.1279296875,-50.6884765625,-50.1025390625,-49.1748046875,-48.7353515625,-46.7333984375,-45.5126953125,-43.9501953125,-43.0224609375,-42.4365234375,-42.4853515625,-41.6552734375,-41.8994140625,-41.1669921875,-41.5576171875,-42.4365234375,-42.7294921875,-43.0712890625,-43.9501953125,-44.3408203125,-45.4638671875,-45.1708984375,-45.7568359375,-45.9033203125,-47.0263671875,-47.4658203125,-48.2958984375,-48.6865234375,-49.5166015625,-50.0537109375,-50.7373046875,-51.1279296875,-50.5419921875,-49.6630859375,-48.7841796875,-47.8564453125,-46.5869140625,-45.8056640625,-43.8037109375,-43.5595703125,-43.3642578125,-43.5107421875,-42.9248046875,-42.9736328125,-42.5830078125,-43.4130859375,-43.7060546875,-44.4873046875,-44.6337890625,-45.0244140625,-45.6103515625,-46.1474609375,-46.5869140625,-46.6357421875,-48.0517578125,-48.1005859375,-49.0771484375,-50.1025390625,-50.5908203125,-50.7861328125,-51.7138671875,-51.6162109375,-52.1533203125,-51.6650390625,-50.9814453125,-49.5166015625,-48.1494140625,-46.7822265625,-44.7802734375,-43.9501953125,-43.0224609375,-43.3154296875,-43.2177734375,-42.6806640625,-42.6806640625,-42.7783203125,-43.1689453125,-43.1689453125,-44.1455078125,-43.9501953125,-45.0244140625,-45.9521484375,-46.1962890625,-46.5380859375,-47.2705078125,-47.9541015625,-48.1982421875,-48.7841796875,-49.6630859375,-50.2001953125,-50.7861328125,-51.3720703125,-51.6162109375,-51.9580078125,-51.8115234375,-50.3955078125,-50.1025390625,-48.4912109375,-47.0751953125,-44.7314453125,-43.1689453125,-42.8759765625,-42.6318359375,-42.9736328125,-42.7783203125,-42.3388671875,-42.2412109375,-43.2177734375,-43.5107421875,-44.2919921875,-45.1708984375,-45.6103515625,-46.0498046875,-46.5380859375,-47.4658203125,-47.6611328125,-48.6376953125,-49.2236328125,-49.2724609375,-50.0537109375,-50.3955078125,-52.0068359375,-51.8603515625,-52.8857421875,-53.0810546875,-51.6650390625,-50.6884765625,-49.4189453125,-48.0517578125,-46.8310546875,-45.5615234375,-44.7314453125,-44.6826171875,-44.1455078125,-44.1943359375,-44.6337890625,-44.4873046875,-44.9755859375,-45.3662109375,-45.5126953125,-46.1474609375,-47.2705078125,-48.1982421875,-48.7841796875,-49.8583984375,-49.5654296875,-50.7373046875,-50.6396484375,-51.4208984375,-51.9580078125,-52.4462890625,-53.5205078125,-38.8232421875,-40.0927734375,-40.2392578125,-39.3115234375,-38.1884765625,-37.0166015625,-36.3818359375,-34.5751953125,-33.0126953125,-31.7431640625,-31.3525390625,-31.2548828125,-31.1083984375,-30.6689453125,-30.0341796875,-30.8154296875,-31.5966796875,-31.9384765625,-31.9384765625,-33.0126953125,-33.0126953125,-34.0869140625,-34.6728515625,-35.0146484375,-35.3076171875,-35.7470703125,-36.8212890625,-37.3095703125,-37.9443359375,-38.8232421875,-38.9697265625,-39.6533203125,-40.1904296875,-40.0439453125,-39.2626953125,-37.9931640625,-36.0400390625,-35.0146484375,-34.0380859375,-32.8662109375,-31.0107421875,-30.3759765625,-31.4013671875,-30.5224609375,-31.0107421875,-30.7666015625,-30.5224609375,-30.9130859375,-31.1083984375,-31.2060546875,-32.0361328125,-32.8173828125,-33.0126953125,-34.1357421875,-34.3310546875,-35.3564453125,-35.2099609375,-35.7470703125,-36.3818359375,-36.6748046875,-36.9677734375,-37.6513671875,-38.4814453125,-38.7744140625,-38.7744140625,-37.6513671875,-36.0400390625,-34.7705078125,-33.5009765625,-32.0849609375,-30.6689453125,-29.6435546875,-29.5947265625,-29.4482421875,-28.8623046875,-29.2041015625,-28.8623046875,-29.1552734375,-29.6923828125,-29.6923828125,-29.5947265625,-30.7177734375,-31.2060546875,-31.8896484375,-31.6943359375,-33.0615234375,-32.4267578125,-33.6962890625,-34.3798828125,-34.9658203125,-35.1123046875,-35.7470703125,-36.4794921875,-36.5283203125,-36.5771484375,-35.6982421875,-34.6728515625,-33.2568359375,-31.5478515625,-30.1806640625,-28.2763671875,-27.2021484375,-25.7861328125,-25.9814453125,-26.0302734375,-25.4931640625,-25.0048828125,-25.2001953125,-25.5419921875,-26.0302734375,-26.3232421875,-26.1767578125,-27.2998046875,-28.4716796875,-29.0576171875,-29.3505859375,-29.8388671875,-30.9130859375,-31.2060546875,-31.5966796875,-32.5244140625,-32.5732421875,-33.0615234375,-33.5009765625,-34.6728515625,-34.8681640625,-34.3798828125,-33.1103515625,-31.3525390625,-29.5947265625,-28.6181640625,-26.1279296875,-24.2724609375,-23.4423828125,-22.8076171875,-23.0517578125,-22.6611328125,-22.1728515625,-22.0263671875,-22.8076171875,-23.3935546875,-24.3701171875,-24.5166015625,-25.7373046875,-26.1279296875,-27.1533203125,-27.6416015625,-28.1298828125,-29.1552734375,-29.9853515625,-30.0341796875,-31.0595703125,-31.4990234375,-31.8408203125,-32.8173828125,-33.1103515625,-33.9404296875,-33.5498046875,-31.5966796875,-30.5712890625,-29.6923828125,-28.1787109375,-26.5185546875,-24.7607421875,-24.0283203125,-24.3701171875,-23.9794921875,-24.1259765625,-23.9794921875,-24.6630859375,-25.2490234375,-25.9814453125,-26.3232421875,-27.1044921875,-27.5439453125,-28.8134765625,-29.2041015625,-30.0830078125,-30.7177734375,-31.3037109375,-32.0849609375,-32.9638671875,-34.1357421875,-34.3798828125,-34.6728515625,-35.8935546875,-36.3330078125,-36.5771484375,-36.5283203125,-35.4541015625,-35.0634765625,-33.3544921875,-31.9873046875,-30.8642578125,-29.1552734375,-27.7392578125,-27.2509765625,-27.2509765625,-27.3974609375,-26.3720703125,-26.4208984375,-26.8115234375,-27.6416015625,-28.5205078125,-28.5205078125,-29.9365234375,-30.4248046875,-31.1572265625,-31.5478515625,-32.1337890625,-33.1591796875,-33.8427734375,-34.8681640625,-35.2099609375,-35.9912109375,-36.6259765625,-37.0166015625,-37.7001953125,-38.3349609375,-39.3603515625,-39.1162109375,-37.8466796875,-36.8212890625,-34.6240234375,-33.7451171875,-32.1826171875,-30.1806640625,-29.1552734375,-29.1552734375,-28.9111328125,-29.2529296875,-29.7412109375,-29.1064453125,-29.3505859375,-29.4970703125,-29.8388671875,-30.2783203125,-31.3525390625,-31.7919921875,-32.2802734375,-33.1103515625,-33.1591796875,-33.7451171875,-35.0146484375,-34.9658203125,-35.9423828125,-36.0400390625,-36.7236328125,-37.3583984375,-38.5302734375,-38.4326171875,-39.0185546875,-37.8466796875,-36.2353515625,-35.8447265625,-34.2333984375,-33.5498046875,-31.0595703125,-30.0341796875,-29.0576171875,-29.3994140625,-28.8623046875,-28.5693359375,-28.0322265625,-28.5693359375,-28.9599609375,-29.2529296875,-29.6923828125,-29.8876953125,-31.0595703125,-31.3037109375,-31.3525390625,-32.1337890625,-32.3291015625,-33.1103515625,-33.5986328125,-33.8427734375,-34.3798828125,-34.9169921875,-35.3564453125,-36.2353515625,-36.1376953125,-36.5283203125,-37.6025390625,-36.4306640625,-34.3798828125,-33.9404296875,-32.5732421875,-30.7666015625,-28.8134765625,-27.5439453125,-26.4208984375,-26.5185546875,-26.1279296875,-26.0302734375,-25.2001953125,-25.2978515625,-25.9814453125,-26.0302734375,-26.3232421875,-26.6650390625,-27.2021484375,-27.8369140625,-28.3251953125,-28.7646484375,-29.1552734375,-29.9365234375,-31.2060546875,-31.0595703125,-31.5478515625,-31.9873046875,-32.4755859375,-32.9150390625,-33.3544921875,-33.8916015625,-34.4287109375,-33.7451171875,-32.0849609375,-31.3037109375,-29.4482421875,-28.0810546875,-26.5673828125,-24.3701171875,-24.2236328125,-23.3447265625,-23.3447265625,-22.2216796875,-22.4169921875,-22.4169921875,-22.9052734375,-23.1494140625,-23.0517578125,-23.6376953125,-24.2724609375,-24.8583984375,-25.8349609375,-26.1279296875,-26.9580078125,-27.2998046875,-27.8369140625,-28.5205078125,-28.9599609375,-29.6435546875,-30.6201171875,-30.9130859375,-31.7919921875,-31.9873046875,-32.1337890625,-31.1572265625,-29.9365234375,-28.5205078125,-27.2998046875,-25.1513671875,-22.7587890625,-22.2216796875,-21.3916015625,-21.6357421875,-21.0986328125,-20.9033203125,-20.0732421875,-21.0986328125,-20.7568359375,-21.3916015625,-21.9287109375,-22.8564453125,-23.6865234375,-24.6630859375,-25.5419921875,-26.3232421875,-26.3232421875,-26.8603515625,-27.7392578125,-28.3740234375,-29.2529296875,-30.0341796875,-30.6201171875,-31.5478515625,-31.6943359375,-31.3037109375,-32.0361328125,-31.6455078125,-30.2783203125,-29.2529296875,-28.0810546875,-26.1279296875,-23.9794921875,-22.5146484375,-22.2705078125,-22.4658203125,-22.7587890625,-22.1728515625,-21.3916015625,-22.6611328125,-23.0517578125,-23.8818359375,-23.8818359375,-24.7607421875,-25.6396484375,-26.3232421875,-27.1044921875,-27.7392578125,-28.6181640625,-28.6669921875,-30.3759765625,-30.8642578125,-31.5478515625,-31.8896484375,-32.4267578125,-33.5498046875,-33.8916015625,-34.1845703125,-33.9892578125,-33.0615234375,-31.8408203125,-30.7177734375,-29.4482421875,-28.0322265625,-26.5673828125,-26.1279296875,-25.7373046875,-26.3720703125,-26.0302734375,-25.6884765625,-25.9814453125,-26.8115234375,-27.7880859375,-27.7880859375,-28.0810546875,-29.0576171875,-29.6923828125,-30.5712890625,-31.1572265625,-31.4501953125,-32.1826171875,-32.5732421875,-33.2080078125,-34.2822265625,-34.9169921875,-35.7470703125,-36.1376953125,-37.2119140625,-37.4560546875,-36.5283203125,-36.7236328125,-35.3564453125,-33.9892578125,-33.0126953125,-31.4501953125,-30.1318359375,-28.7158203125,-28.5693359375,-28.6669921875,-29.0576171875,-28.2763671875,-28.0322265625,-28.6669921875,-29.6923828125,-29.6435546875,-29.8388671875,-30.8154296875,-31.4501953125,-32.1337890625,-32.8173828125,-32.8662109375,-33.7451171875,-34.1845703125,-34.9169921875,-34.5263671875,-35.6005859375,-36.5283203125,-37.5048828125,-37.6025390625,-38.5791015625,-38.3349609375,-38.2861328125,-36.6259765625,-35.7958984375,-33.9892578125,-32.9150390625,-31.5966796875,-30.4248046875,-29.0087890625,-28.7646484375,-27.7392578125,-27.9345703125,-27.6416015625,-27.7392578125,-28.5693359375,-28.7158203125,-29.3994140625,-29.5947265625,-30.9130859375,-30.9130859375,-31.6943359375,-31.8408203125,-32.8173828125,-33.2080078125,-33.4521484375,-34.6240234375,-35.0634765625,-35.7958984375,-35.0146484375,-36.3818359375,-36.7724609375,-37.8466796875,-38.0419921875,-37.5537109375,-35.9912109375,-34.7705078125,-33.0615234375,-31.6455078125,-30.6689453125,-28.5693359375,-28.3740234375,-28.1298828125,-27.4951171875,-27.9345703125,-27.3486328125,-27.7392578125,-28.0810546875,-28.5693359375,-28.2763671875,-29.2041015625,-29.8876953125,-30.5712890625,-31.2060546875,-31.4013671875,-32.1337890625,-32.8662109375,-33.3544921875,-34.5263671875,-34.6240234375,-35.2099609375,-35.9423828125,-36.1865234375,-36.5771484375,-37.1630859375,-36.9677734375,-36.9677734375,-35.5517578125,-34.0869140625,-32.8662109375,-31.4990234375,-29.7412109375,-27.5927734375,-27.3486328125,-27.3974609375,-27.3974609375,-27.2021484375,-27.0068359375,-27.4951171875,-27.2509765625,-27.9833984375,-28.4228515625,-28.6669921875,-29.6923828125,-30.3759765625,-31.0595703125,-31.3525390625,-32.3779296875,-32.5732421875,-33.4033203125,-34.5751953125,-34.6240234375,-35.0634765625,-36.1376953125,-37.0166015625,-37.1142578125,-38.1396484375,-37.9931640625,-37.3095703125,-35.9912109375,-35.4541015625,-33.4521484375,-32.0361328125,-29.4482421875,-28.7646484375,-28.1298828125,-27.5439453125,-27.2998046875,-27.1533203125,-26.3720703125,-26.7138671875,-26.5673828125,-27.0556640625,-28.4716796875,-28.5205078125,-29.2529296875,-29.7412109375,-30.3271484375,-30.7666015625,-31.4501953125,-32.2802734375,-32.4755859375,-33.2080078125,-33.4521484375,-33.9892578125,-35.3076171875,-35.8447265625,-36.3818359375,-36.8212890625,-37.3095703125,-36.3818359375,-34.9658203125,-33.6962890625,-32.5732421875,-30.5712890625,-28.9111328125,-27.4951171875,-27.0556640625,-26.6162109375,-26.7138671875,-26.3720703125,-26.7626953125,-26.9091796875,-27.2509765625,-27.2998046875,-28.4228515625,-28.6181640625,-29.5458984375,-30.4736328125,-31.2060546875,-31.2548828125,-31.9873046875,-32.8173828125,-33.7939453125,-33.9892578125,-34.6728515625,-35.4541015625,-36.0400390625,-36.7236328125,-37.3583984375,-38.0908203125,-38.4326171875,-37.7978515625,-36.4306640625,-35.1123046875,-33.5986328125,-31.9384765625,-29.7900390625,-28.4716796875,-27.3486328125,-27.2021484375,-26.8603515625,-26.4208984375,-26.7138671875,-26.7626953125,-27.5927734375,-28.3740234375,-28.6669921875,-28.6181640625,-29.8388671875,-30.7177734375,-31.2548828125,-31.6943359375,-32.7197265625,-33.5009765625,-33.6962890625,-34.2333984375,-34.7705078125,-35.1611328125,-35.9912109375,-36.9677734375,-37.7001953125,-38.4326171875,-39.0673828125,-38.4326171875,-36.9677734375,-35.7470703125,-34.3310546875,-33.1591796875,-31.4501953125,-30.0830078125,-29.0087890625,-28.1787109375,-28.3251953125,-27.8857421875,-27.3974609375,-27.9833984375,-28.3740234375,-28.5693359375,-28.8134765625,-29.6435546875,-30.2294921875,-30.9619140625,-32.0361328125,-33.0126953125,-32.5732421875,-33.7451171875,-34.4287109375,-35.0146484375,-35.1611328125,-36.3330078125,-36.6748046875,-37.0654296875,-38.2373046875,-38.0419921875,-38.9697265625,-39.1162109375,-37.9443359375,-36.6259765625,-35.5517578125,-33.6962890625,-32.6220703125,-31.4501953125,-30.3271484375,-28.7158203125,-29.3505859375,-29.3994140625,-28.6181640625,-28.8134765625,-29.2041015625,-29.7900390625,-30.0830078125,-30.3271484375,-30.9619140625,-31.6455078125,-32.2802734375,-33.0615234375,-33.7451171875,-34.0869140625,-34.6240234375,-35.7470703125,-36.2353515625,-37.2119140625,-37.5048828125,-37.5537109375,-38.3349609375,-39.2138671875,-39.5556640625,-40.0439453125,-40.4833984375,-39.0673828125,-37.6513671875,-36.5771484375,-35.0146484375,-32.6708984375,-31.1083984375,-30.0830078125,-29.2041015625,-29.0087890625,-28.9599609375,-28.6181640625,-28.8134765625,-29.2529296875,-29.4970703125,-30.0830078125,-30.0341796875,-30.7177734375,-31.3525390625,-31.6943359375,-32.5732421875,-32.8662109375,-33.2080078125,-34.7216796875,-34.6728515625,-36.2841796875,-36.5771484375,-36.7236328125,-37.1630859375,-37.5537109375,-38.1396484375,-38.4814453125,-39.5556640625,-39.6533203125,-39.1650390625,-37.4072265625,-35.6005859375,-34.0869140625,-33.0126953125,-31.4990234375,-29.6923828125,-29.5458984375,-28.6669921875,-28.9599609375,-27.9345703125,-28.0322265625,-28.2275390625,-28.8623046875,-28.7646484375,-29.2041015625,-30.0341796875,-30.4736328125,-30.5712890625,-31.0595703125,-31.7431640625,-32.3779296875,-33.5009765625,-34.0380859375,-34.7705078125,-34.5751953125,-35.4052734375,-35.6494140625,-36.4794921875,-37.3095703125,-37.7978515625,-38.2373046875,-37.9443359375,-37.2119140625,-35.4052734375,-34.3798828125,-32.4755859375,-30.9130859375,-29.7900390625,-28.6181640625,-27.8857421875,-27.8369140625,-27.6416015625,-26.8603515625,-27.3974609375,-27.5439453125,-27.9345703125,-28.3740234375,-29.3017578125,-29.5947265625,-30.3759765625,-31.1572265625,-31.6943359375,-32.2314453125,-32.3291015625,-33.0615234375,-34.0869140625,-34.7216796875,-35.4541015625,-35.7958984375,-36.7236328125,-37.1142578125,-37.9931640625,-38.9208984375,-38.4814453125,-38.7744140625,-37.6513671875,-36.2841796875,-35.1611328125,-32.5244140625,-31.5478515625,-29.9365234375,-29.0576171875,-27.7392578125,-28.3740234375,-27.4951171875,-26.8115234375,-27.3486328125,-27.1533203125,-27.7392578125,-28.5693359375,-28.4228515625,-30.1806640625,-30.0830078125,-31.3037109375,-31.4990234375,-32.4267578125,-33.0126953125,-33.4521484375,-34.5263671875,-34.5263671875,-35.6982421875,-36.4794921875,-36.9189453125,-37.7001953125,-38.4814453125,-38.8720703125,-39.5556640625,-39.5556640625,-38.9208984375,-37.2607421875,-35.8935546875,-33.9404296875,-32.7685546875,-31.1572265625,-30.5712890625,-30.2294921875,-29.5947265625,-29.7412109375,-29.3505859375,-29.2529296875,-30.0830078125,-29.7412109375,-29.8876953125,-31.0595703125,-31.6455078125,-32.4267578125,-33.0126953125,-33.8916015625,-33.9892578125,-34.5263671875,-36.0400390625,-36.3818359375,-37.0654296875,-37.0654296875,-38.2373046875,-39.0185546875,-38.8720703125,-39.9951171875,-40.6298828125,-40.8251953125,-40.9716796875,-39.5068359375,-37.9931640625,-36.3818359375,-34.7705078125,-33.6962890625,-32.3779296875,-31.1572265625,-30.9130859375,-30.8154296875,-30.2783203125,-29.8876953125,-30.6201171875,-30.9619140625,-31.1083984375,-31.8408203125,-32.4267578125,-33.0126953125,-33.6962890625,-34.1845703125,-35.1611328125,-35.2099609375,-35.8447265625,-36.6259765625,-37.7001953125,-37.8466796875,-38.2861328125,-38.9697265625,-38.9208984375,-40.4833984375,-40.5322265625,-40.9716796875,-42.3388671875,-41.8017578125,-40.7763671875,-38.7744140625,-38.4814453125,-36.7724609375,-34.5263671875,-33.2568359375,-31.8408203125,-30.5712890625,-31.0107421875,-30.9130859375,-30.6201171875,-30.6689453125,-30.7666015625,-30.4248046875,-31.4501953125,-31.6455078125,-32.1337890625,-32.5732421875,-33.3544921875,-33.8916015625,-34.9169921875,-34.7705078125,-36.0400390625,-36.2841796875,-36.4794921875,-37.4560546875,-37.6025390625,-38.8232421875,-38.8720703125,-38.9697265625,-40.0927734375,-40.2392578125,-39.8974609375,-38.3349609375,-37.6513671875,-36.2353515625,-34.7216796875,-32.8662109375,-31.5478515625,-30.4248046875,-29.5458984375,-30.2294921875,-29.3017578125,-29.0087890625,-28.4228515625,-29.0576171875,-29.5458984375,-30.2783203125,-30.1806640625,-30.9130859375,-31.9384765625,-31.4501953125,-32.9638671875,-33.2568359375,-33.9892578125,-34.4287109375,-34.3310546875,-35.9912109375,-36.3818359375,-37.1142578125,-36.9189453125,-38.2861328125,-38.0908203125,-39.3603515625,-39.4580078125,-38.8720703125,-37.1142578125,-36.6748046875,-34.9658203125,-33.1103515625,-31.3525390625,-29.3994140625,-28.1787109375,-27.6416015625,-27.5439453125,-27.1044921875,-27.0068359375,-26.5673828125,-26.8115234375,-27.9345703125,-27.9833984375,-28.4716796875,-29.2041015625,-28.6669921875,-30.0830078125,-30.6201171875,-31.4501953125,-30.8154296875,-32.3779296875,-32.8662109375,-33.2568359375,-33.9404296875,-34.2333984375,-35.4052734375,-35.7470703125,-36.3330078125,-37.5048828125,-38.0419921875,-37.7001953125,-37.1142578125,-35.4052734375,-34.2333984375,-31.8896484375,-30.0830078125,-28.1787109375,-27.0556640625,-26.4697265625,-26.1279296875,-25.3466796875,-25.3955078125,-25.1513671875,-25.2001953125,-25.6396484375,-26.2255859375,-26.8115234375,-27.6416015625,-27.6416015625,-28.0810546875,-28.8134765625,-29.1552734375,-30.4736328125,-30.4248046875,-31.8408203125,-32.1337890625,-33.1591796875,-33.4521484375,-34.5751953125,-34.7216796875,-35.6982421875,-36.6748046875,-36.5283203125,-37.3095703125,-36.3330078125,-35.6494140625,-33.9404296875,-32.4267578125,-30.9130859375,-29.3505859375,-28.6181640625,-27.5927734375,-28.0810546875,-27.6904296875,-27.1533203125,-27.0068359375,-27.3486328125,-28.2763671875,-28.8134765625,-29.7900390625,-29.9365234375,-30.5712890625,-31.7431640625,-32.3291015625,-33.1103515625,-33.6474609375,-34.7705078125,-35.0634765625,-36.7236328125,-36.0400390625,-36.4794921875,-37.1630859375,-38.2373046875,-38.7744140625,-39.8974609375,-39.6044921875,-39.9462890625,-39.3115234375,-37.6025390625,-36.7236328125,-34.3310546875,-32.9150390625,-31.9873046875,-30.0341796875,-29.3017578125,-30.1806640625,-29.4482421875,-29.1064453125,-29.4482421875,-29.6435546875,-29.4970703125,-29.9365234375,-30.6201171875,-31.1083984375,-31.7919921875,-32.4755859375,-33.5009765625,-33.4033203125,-33.9892578125,-34.6728515625,-35.3076171875,-36.2841796875,-36.3330078125,-37.6025390625,-38.0908203125,-38.8232421875,-39.2138671875,-39.5068359375,-40.4833984375,-40.8251953125,-40.2880859375,-38.4814453125,-37.5537109375,-35.8935546875,-34.1357421875,-33.0615234375,-31.0107421875,-30.2294921875,-29.9853515625,-30.4736328125,-29.3994140625,-29.4970703125,-29.2529296875,-29.7900390625,-30.2783203125,-31.1572265625,-31.0107421875,-31.9873046875,-33.2080078125,-33.6474609375,-34.0380859375,-34.8193359375,-34.7216796875,-35.3564453125,-36.4306640625,-36.0888671875,-37.4560546875,-37.9931640625,-37.9931640625,-38.5302734375,-39.0673828125,-40.1904296875,-39.1650390625,-37.7001953125,-36.3330078125,-35.6982421875,-33.8427734375,-31.9873046875,-31.2060546875,-30.1806640625,-29.9853515625,-28.9111328125,-29.8388671875,-29.1552734375,-29.7900390625,-30.3271484375,-30.4248046875,-30.9619140625,-31.5966796875,-32.4755859375,-32.8662109375,-33.8427734375,-34.2333984375,-34.7216796875,-35.2587890625,-35.8447265625,-36.5283203125,-36.9677734375,-37.3095703125,-37.7001953125,-38.7744140625,-39.4580078125,-40.1416015625,-40.3369140625,-39.4091796875,-39.3115234375,-37.7490234375,-36.7236328125,-34.5263671875,-33.5986328125,-31.7919921875,-29.6923828125,-29.0087890625,-29.1552734375,-29.0087890625,-28.6669921875,-28.5205078125,-28.5693359375,-29.5947265625,-30.1318359375,-29.6923828125,-30.5224609375,-31.0107421875,-32.2802734375,-32.5732421875,-33.0615234375,-33.5498046875,-34.0869140625,-34.8193359375,-35.7958984375,-36.3330078125,-37.0654296875,-37.5048828125,-38.0908203125,-38.5791015625,-39.0185546875,-39.7021484375,-39.2138671875,-38.0419921875,-35.8447265625,-35.0146484375,-33.1591796875,-31.5966796875,-30.3271484375,-29.5458984375,-29.4482421875,-28.7158203125,-29.0087890625,-28.7646484375,-28.9599609375,-29.6435546875,-29.9365234375,-30.3759765625,-30.5224609375,-31.6455078125,-31.6455078125,-32.6220703125,-33.3056640625,-34.2822265625,-35.2099609375,-35.1611328125,-36.0888671875,-36.8701171875,-36.9677734375,-38.2373046875,-38.6767578125,-38.8720703125,-39.8486328125,-40.6787109375,-39.5556640625,-38.2373046875,-37.2607421875,-35.2587890625,-34.3310546875,-32.3779296875,-30.3271484375,-30.2783203125,-29.5947265625,-29.6923828125,-29.8876953125,-29.4970703125,-29.7900390625,-30.0341796875,-30.9619140625,-31.5478515625,-31.7919921875,-32.5244140625,-33.8916015625,-34.7705078125,-35.0634765625,-35.7470703125,-36.4306640625,-37.5537109375,-37.8466796875,-38.1884765625,-39.4580078125,-39.9951171875,-40.1416015625,-41.2158203125,-41.6064453125,-41.8505859375,-41.7529296875,-41.4599609375,-39.6044921875,-38.0908203125,-37.3095703125,-34.9169921875,-33.5498046875,-32.2802734375,-31.3525390625,-31.8408203125,-31.9384765625,-31.4013671875,-31.1083984375,-31.7919921875,-32.1826171875,-32.8662109375,-33.1103515625,-34.3310546875,-34.5751953125,-35.3564453125,-36.4794921875,-37.3583984375,-37.2119140625,-38.0908203125,-39.1162109375,-39.7998046875,-40.4345703125,-40.5810546875,-41.6552734375,-41.8017578125,-42.6318359375,-43.8037109375,-43.1201171875,-43.2177734375,-41.9482421875,-40.4833984375,-39.2138671875,-38.7744140625,-35.9423828125,-36.4306640625,-34.6728515625,-33.7939453125,-33.7939453125,-33.8916015625,-33.3056640625,-33.5009765625,-34.0869140625,-34.3798828125,-34.9169921875,-35.4541015625,-36.3818359375,-36.7724609375,-37.7978515625,-38.0908203125,-38.6279296875,-39.2626953125,-40.2392578125,-40.5810546875,-41.4111328125,-41.5087890625,-41.8994140625,-43.3154296875,-43.4619140625,-44.7314453125,-45.0732421875,-45.1708984375,-44.1943359375,-41.9970703125,-41.1669921875,-39.7998046875,-38.1396484375,-36.7724609375,-35.8935546875,-34.6240234375,-35.5029296875,-35.1123046875,-35.0146484375,-35.4541015625,-35.6494140625,-36.1376953125,-36.4794921875,-37.0166015625,-37.1142578125,-38.5791015625,-38.5791015625,-39.4091796875,-40.1416015625,-40.2880859375,-41.1669921875,-42.2900390625,-42.1435546875,-43.3154296875,-44.5361328125,-44.8291015625,-45.6591796875,-45.6103515625,-46.3916015625,-46.4404296875,-46.3427734375,-45.5126953125,-44.1455078125,-42.7294921875,-41.3134765625,-40.1416015625,-38.4326171875,-36.7236328125,-36.0888671875,-36.0400390625,-35.6005859375,-35.2099609375,-35.3076171875,-35.5029296875,-35.6005859375,-36.4794921875,-36.4306640625,-37.4560546875,-37.1142578125,-37.9443359375,-38.8232421875,-39.6533203125,-39.4580078125,-40.6298828125,-40.8251953125,-41.7041015625,-42.3876953125,-42.5341796875,-43.7060546875,-43.7548828125,-44.8291015625,-44.7802734375,-44.9267578125,-44.7314453125,-43.3642578125,-42.0458984375,-40.6787109375,-38.4814453125,-37.2607421875,-36.1376953125,-34.9658203125,-34.8193359375,-34.2333984375,-34.1357421875,-33.4521484375,-33.9404296875,-34.1357421875,-34.8681640625,-34.8681640625,-35.0634765625,-35.9423828125,-36.7236328125,-37.2119140625,-38.0908203125,-38.2861328125,-38.8232421875,-39.6044921875,-40.3369140625,-40.5322265625,-40.9228515625,-41.8505859375,-42.9248046875,-43.2177734375,-43.4130859375,-43.9990234375,-44.0478515625,-42.8271484375,-40.6298828125,-39.3603515625,-38.0419921875,-36.1865234375,-34.6240234375,-33.5986328125,-32.3291015625,-32.5244140625,-31.9384765625,-31.5478515625,-31.2548828125,-30.9130859375,-31.9384765625,-32.4267578125,-32.6220703125,-33.5986328125,-34.3798828125,-35.2587890625,-35.5517578125,-36.1376953125,-36.4794921875,-37.4560546875,-38.2373046875,-38.5302734375,-39.5556640625,-39.8486328125,-40.0927734375,-40.6298828125,-42.2900390625,-42.5341796875,-42.6806640625,-42.3388671875,-41.6064453125,-39.5068359375,-38.5302734375,-36.8701171875,-34.6240234375,-33.6474609375,-32.1826171875,-30.7177734375,-31.1083984375,-31.2548828125,-30.3759765625,-30.7666015625,-30.8154296875,-31.4990234375,-31.7431640625,-31.7919921875,-32.2314453125,-32.7197265625,-34.0869140625,-34.7705078125,-35.7470703125,-36.2353515625,-36.3330078125,-36.9677734375,-37.5537109375,-38.7255859375,-38.8232421875,-39.4580078125,-40.5810546875,-41.2646484375,-42.0947265625,-41.2158203125,-40.9716796875,-39.9951171875,-38.4326171875,-37.2119140625,-36.1376953125,-34.7216796875,-32.9150390625,-31.9873046875,-32.2802734375,-32.1337890625,-31.7431640625,-31.6943359375,-32.3291015625,-32.5732421875,-33.1103515625,-33.1103515625,-34.0380859375,-34.6240234375,-35.6005859375,-35.8935546875,-36.4794921875,-37.0654296875,-38.0419921875,-39.0673828125,-39.5068359375,-39.8486328125,-40.7275390625,-41.5576171875,-41.8505859375,-42.2412109375,-43.2666015625,-43.7060546875,-43.2177734375,-42.2900390625,-41.8994140625,-39.9951171875,-38.4326171875,-36.8212890625,-35.7470703125,-33.9892578125,-33.4521484375,-33.4521484375,-33.4521484375,-32.7685546875,-32.5244140625,-33.2080078125,-33.7451171875,-33.9404296875,-34.2333984375,-34.7705078125,-35.0634765625,-35.8935546875,-36.3330078125,-37.2119140625,-37.8955078125,-38.2861328125,-39.0185546875,-39.6044921875,-39.7998046875,-40.5810546875,-41.5087890625,-41.8017578125,-42.7294921875,-43.0224609375,-43.8525390625,-43.4619140625,-42.5341796875,-41.4111328125,-39.4580078125,-38.4326171875,-36.3818359375,-34.9658203125,-33.8916015625,-33.4033203125,-33.7939453125,-33.4033203125,-32.1826171875,-32.3291015625,-32.9150390625,-33.6474609375,-34.0869140625,-33.8916015625,-34.4775390625,-34.6240234375,-35.5517578125,-36.0400390625,-36.7236328125,-37.4560546875,-37.3583984375,-38.3349609375,-39.3603515625,-39.3603515625,-39.7021484375,-40.2392578125,-39.9462890625,-41.4599609375,-42.4365234375,-41.9482421875,-41.2646484375,-39.6533203125,-37.8955078125,-37.1142578125,-35.6005859375,-33.8916015625,-32.7685546875,-32.0849609375,-31.9873046875,-31.6943359375,-31.7431640625,-31.7919921875,-32.3779296875,-32.9638671875,-33.0126953125,-33.5986328125,-33.5986328125,-34.5263671875,-35.5029296875,-36.2841796875,-36.5771484375,-36.8701171875,-37.1630859375,-38.7255859375,-38.6767578125,-38.5791015625,-39.7998046875,-40.8740234375,-41.0693359375,-41.0205078125,-41.9482421875,-41.9970703125,-41.0693359375,-39.8486328125,-38.3837890625,-37.2119140625,-35.3076171875,-33.8427734375,-32.7685546875,-31.9873046875,-31.6455078125,-31.6455078125,-30.2783203125,-31.0107421875,-30.9619140625,-31.1572265625,-31.8408203125,-32.3291015625,-32.8662109375,-33.6962890625,-34.0380859375,-34.4287109375,-35.3564453125,-35.9912109375,-36.8212890625,-37.5537109375,-37.5048828125,-38.8720703125,-38.9208984375,-39.4091796875,-40.6787109375,-40.6298828125,-41.0693359375,-41.3134765625,-40.9716796875,-39.7998046875,-38.2373046875,-36.8701171875,-35.6005859375,-33.6962890625,-32.1337890625,-31.4013671875,-31.1572265625,-31.0107421875,-30.7666015625,-29.9853515625,-30.6689453125,-31.4013671875,-32.1337890625,-32.1337890625,-32.6708984375,-32.9638671875,-33.8427734375,-34.5751953125,-34.5751953125,-35.4052734375,-36.3818359375,-36.7236328125,-37.4072265625,-37.8466796875,-39.0185546875,-39.6044921875,-39.7998046875,-40.1904296875,-41.1669921875,-41.3623046875,-40.5810546875,-38.9697265625,-37.4560546875,-36.2841796875,-34.4287109375,-33.7451171875,-32.4267578125,-31.5966796875,-31.3525390625,-31.4013671875,-31.5966796875,-31.1572265625,-31.4501953125,-32.4267578125,-32.3779296875,-33.2080078125,-33.9404296875,-34.3310546875,-34.7705078125,-35.3564453125,-36.2353515625,-37.0654296875,-37.7490234375,-37.9931640625,-37.9931640625,-38.9697265625,-39.2626953125,-40.4345703125,-40.9228515625,-41.0693359375,-41.8994140625,-42.1435546875,-41.9482421875,-40.4345703125,-39.2626953125,-38.1884765625,-36.2841796875,-34.7216796875,-32.4267578125,-31.5966796875,-31.3525390625,-31.1572265625,-30.8642578125,-30.0341796875,-30.4248046875,-31.4013671875,-32.3291015625,-31.6455078125,-32.5732421875,-32.7197265625,-33.6962890625,-34.4287109375,-34.8193359375,-35.2099609375,-36.0400390625,-37.7001953125,-37.6025390625,-38.8232421875,-39.3115234375,-39.0185546875,-39.6533203125,-40.5810546875,-40.5810546875,-41.8505859375,-41.8017578125,-40.4833984375,-38.7744140625,-37.1630859375,-36.2841796875,-34.4287109375,-32.7685546875,-31.5478515625,-30.6689453125,-30.7177734375,-30.1806640625,-29.9365234375,-29.4482421875,-30.0341796875,-30.6201171875,-30.9130859375,-31.5478515625,-31.4501953125,-32.8662109375,-33.3056640625,-33.5986328125,-33.8916015625,-34.6728515625,-35.2099609375,-35.8447265625,-36.4306640625,-37.2119140625,-37.3095703125,-37.9931640625,-38.3349609375,-39.1162109375,-39.7509765625,-39.9462890625,-39.1650390625,-37.1630859375,-35.8447265625,-33.9892578125,-32.4267578125,-31.2060546875,-29.9365234375,-30.1806640625,-29.6923828125,-29.4970703125,-29.0576171875,-29.3994140625,-29.2041015625,-29.6923828125,-29.9853515625,-30.5712890625,-31.7431640625,-32.1826171875,-32.0849609375,-32.9150390625,-33.5986328125,-34.4775390625,-34.2822265625,-35.3076171875,-35.6982421875,-36.1865234375,-36.7724609375,-37.4560546875,-38.4326171875,-38.2861328125,-39.1650390625,-39.2626953125,-39.3115234375,-37.6513671875,-35.9912109375,-34.1357421875,-33.3056640625,-31.5478515625,-29.7900390625,-28.8623046875,-29.0576171875,-28.7646484375,-28.2763671875,-28.5205078125,-28.3740234375,-29.1552734375,-28.9599609375,-29.4970703125,-30.5712890625,-31.0107421875,-31.8896484375,-31.9873046875,-32.6220703125,-33.7451171875,-34.2822265625,-35.2099609375,-35.9912109375,-36.5283203125,-37.1630859375,-37.2119140625,-37.9443359375,-39.1650390625,-39.5068359375,-39.2138671875,-39.7998046875,-37.7978515625,-35.7470703125,-34.9169921875,-33.4033203125,-32.2802734375,-30.6689453125,-29.8876953125,-29.7412109375,-28.8134765625,-28.8623046875,-28.9599609375,-28.4228515625,-29.4482421875,-29.5458984375,-30.7666015625,-31.0595703125,-31.1083984375,-31.6455078125,-32.8173828125,-32.9150390625,-33.3544921875,-34.7705078125,-34.3310546875,-35.2587890625,-36.6748046875,-37.8466796875,-37.9443359375,-37.9931640625,-39.2138671875,-39.9462890625,-39.3603515625,-39.3603515625,-37.4560546875,-37.1142578125,-35.3076171875,-34.2333984375,-32.5732421875,-31.3037109375,-29.7412109375,-29.9853515625,-30.5712890625,-29.2529296875,-29.6923828125,-29.3505859375,-29.6435546875,-30.6201171875,-30.6201171875,-31.8896484375,-32.1337890625,-32.1337890625,-33.0126953125,-33.9404296875,-33.9404296875,-35.4541015625,-35.2587890625,-36.1376953125,-36.9677734375,-36.8212890625,-38.0908203125,-38.9697265625,-38.7255859375,-39.4091796875,-39.8974609375,-39.7998046875,-38.7744140625,-37.7001953125,-36.0888671875,-34.7216796875,-33.1103515625,-31.5966796875,-30.0830078125,-30.1318359375,-30.3759765625,-30.0341796875,-29.3994140625,-29.6435546875,-30.0341796875,-30.0830078125,-30.7177734375,-31.7431640625,-31.3525390625,-32.0361328125,-33.3056640625,-33.7939453125,-34.2822265625,-35.0146484375,-35.6982421875,-35.6982421875,-36.3818359375,-37.3583984375,-38.0908203125,-38.2861328125,-38.3837890625,-39.0673828125,-39.9462890625,-40.0439453125,-38.7255859375,-37.7490234375,-36.0400390625,-34.2822265625,-33.2568359375,-32.0361328125,-30.5712890625,-29.9853515625,-30.1318359375,-30.1806640625,-30.0341796875,-30.7177734375,-31.1083984375,-31.1083984375,-31.4013671875,-31.4501953125,-32.6708984375,-32.9638671875,-32.9638671875,-34.0869140625,-34.3310546875,-35.0146484375,-35.5517578125,-36.1376953125,-36.0400390625,-37.4072265625,-37.6513671875,-37.9931640625,-39.0185546875,-39.3115234375,-39.4580078125,-38.9208984375,-37.1630859375,-36.1376953125,-35.6005859375,-33.5009765625,-31.7431640625,-30.4248046875,-29.7900390625,-29.8388671875,-29.5947265625,-28.6181640625,-29.1552734375,-29.0087890625,-30.2294921875,-29.8876953125,-30.4248046875,-30.4736328125,-31.3525390625,-32.0849609375,-31.9873046875,-31.9873046875,-32.9638671875,-33.5498046875,-34.7216796875,-35.4052734375,-35.6494140625,-36.3330078125,-36.5771484375,-36.6748046875,-37.1142578125,-38.5302734375,-38.5302734375,-38.0419921875,-36.4306640625,-34.7705078125,-33.3544921875,-32.0849609375,-31.2060546875,-29.3994140625,-28.7158203125,-29.0087890625,-29.1064453125,-28.3740234375,-28.3740234375,-28.7158203125,-28.2763671875,-29.2041015625,-29.2041015625,-30.4736328125,-30.9130859375,-31.6943359375,-32.1826171875,-32.4755859375,-33.2568359375,-33.5986328125,-33.5986328125,-34.3310546875,-34.9169921875,-36.0888671875,-36.8212890625,-36.8212890625,-36.9677734375,-37.9443359375,-37.1142578125,-35.5517578125,-34.3798828125,-32.9638671875,-31.3037109375,-30.2294921875,-28.5205078125,-28.1298828125,-27.9345703125,-27.6904296875,-27.2021484375,-27.2998046875,-27.7880859375,-27.4462890625,-28.3740234375,-28.4228515625,-29.3505859375,-29.9853515625,-30.0830078125,-31.0595703125,-30.9130859375,-31.9384765625,-32.1826171875,-33.1591796875,-34.0869140625,-34.5263671875,-34.5751953125,-35.3076171875,-35.7958984375,-36.8701171875,-36.8701171875,-36.3330078125,-35.4052734375,-33.9404296875,-31.9873046875,-30.4248046875,-28.5693359375,-27.4462890625,-25.9326171875,-25.8837890625,-25.2490234375,-24.7607421875,-24.4189453125,-24.5654296875,-25.0537109375,-25.2490234375,-25.8349609375,-26.3720703125,-26.4208984375,-27.2021484375,-28.5205078125,-28.8623046875,-29.3017578125,-29.9365234375,-30.4248046875,-31.0107421875,-31.2548828125,-31.9873046875,-32.4755859375,-33.3544921875,-34.2333984375,-34.8681640625,-35.2587890625,-34.5263671875,-32.9150390625,-31.0107421875,-29.5458984375,-28.4228515625,-26.0791015625,-24.9072265625,-23.8330078125,-23.8330078125,-23.9794921875,-23.5888671875,-23.6865234375,-23.8330078125,-23.9794921875,-23.9306640625,-24.9072265625,-25.3466796875,-25.4931640625,-26.8603515625,-27.0068359375,-28.5205078125,-29.3017578125,-29.3505859375,-29.8876953125,-31.0107421875,-31.3525390625,-32.3291015625,-33.3544921875,-33.0126953125,-33.6962890625,-34.0380859375,-34.4775390625,-34.0869140625,-32.2314453125,-30.6201171875,-29.6923828125,-28.1298828125,-26.9580078125,-25.9814453125,-26.2255859375,-26.0791015625,-26.2255859375,-25.7861328125,-26.6650390625,-27.4951171875,-27.3974609375,-28.2763671875,-28.0810546875,-29.2041015625,-29.2041015625,-30.6201171875,-31.3525390625,-32.0361328125,-32.1826171875,-33.3544921875,-33.5986328125,-34.7216796875,-34.3310546875,-35.6005859375,-36.4306640625,-36.8212890625,-37.3583984375,-37.5048828125,-37.2607421875,-36.1376953125,-34.5751953125,-32.9638671875,-31.5478515625,-29.6923828125,-28.7158203125,-28.2763671875,-29.1552734375,-28.1787109375,-27.7392578125,-28.4716796875,-28.6181640625,-29.3505859375,-30.1318359375,-30.1806640625,-31.3037109375,-31.7919921875,-32.3291015625,-33.2568359375,-32.9638671875,-33.8916015625,-34.4775390625,-34.9658203125,-36.0888671875,-36.9677734375,-37.4072265625,-37.8466796875,-39.0185546875,-39.5556640625,-39.8486328125,-39.8486328125,-40.0927734375,-37.7490234375,-36.6748046875,-35.9912109375,-33.1103515625,-32.2314453125,-30.9130859375,-30.5712890625,-30.8154296875,-30.3271484375,-29.6435546875,-30.2294921875,-30.5224609375,-31.3525390625,-31.5478515625,-31.9873046875,-32.8662109375,-33.4033203125,-33.5986328125,-34.8681640625,-35.1123046875,-35.6005859375,-36.8701171875,-36.9189453125,-36.8212890625,-38.1884765625,-38.6767578125,-38.7744140625,-39.6044921875,-40.9228515625,-41.5576171875,-40.9716796875,-40.1416015625,-38.4326171875,-37.3095703125,-36.1865234375,-34.2333984375,-33.7451171875,-32.6708984375,-32.2802734375,-31.7919921875,-31.2548828125,-30.9619140625,-31.1572265625,-31.1572265625,-31.8408203125,-32.4267578125,-32.9150390625,-33.5498046875,-34.2333984375,-35.1123046875,-35.6982421875,-35.5517578125,-36.3818359375,-37.5048828125,-38.4814453125,-38.4814453125,-39.8486328125,-39.7509765625,-39.8974609375,-41.2646484375,-41.7529296875,-41.4111328125,-42.0458984375,-41.6552734375,-40.1904296875,-39.2138671875,-37.4072265625,-36.2841796875,-34.3310546875,-32.5244140625,-31.8408203125,-31.8896484375,-31.5478515625,-30.9619140625,-30.8642578125,-31.4990234375,-31.3525390625,-31.9873046875,-33.2080078125,-33.4521484375,-33.7451171875,-34.6240234375,-35.0634765625,-35.7470703125,-36.7724609375,-37.7490234375,-38.1884765625,-38.7255859375,-39.0673828125,-40.0927734375,-39.9951171875,-40.9716796875,-41.7041015625,-42.3388671875,-42.3388671875,-42.6318359375,-41.7529296875,-39.8486328125,-38.4814453125,-37.0166015625,-35.4052734375,-34.0380859375,-32.9638671875,-32.1337890625,-31.9384765625,-31.9873046875,-32.0361328125,-31.4013671875,-32.8173828125,-33.2568359375,-33.6474609375,-33.8427734375,-35.1123046875,-35.6005859375,-35.8935546875,-36.5771484375,-36.8701171875,-38.0419921875,-38.4326171875,-39.4580078125,-39.8486328125,-40.8251953125,-41.2158203125,-42.3388671875,-41.9970703125,-43.1689453125,-43.0712890625,-43.9501953125,-42.3388671875,-40.7275390625,-40.1904296875,-38.5302734375,-36.5771484375,-35.4541015625,-34.3798828125,-34.5263671875,-33.9404296875,-33.9404296875,-33.5498046875,-33.7451171875,-35.1611328125,-35.2587890625,-35.6005859375,-36.5283203125,-37.0166015625,-37.7978515625,-38.0908203125,-38.9697265625,-39.4091796875,-40.3857421875,-40.6298828125,-41.1181640625,-41.8017578125,-42.6806640625,-42.8271484375,-43.1201171875,-44.4384765625,-44.9755859375,-45.3662109375,-45.1220703125,-44.7314453125,-42.6318359375,-42.0947265625,-40.3369140625,-38.8232421875,-37.3583984375,-35.9912109375,-35.9912109375,-35.4052734375,-35.9423828125,-35.2099609375,-35.7958984375,-35.6982421875,-36.5771484375,-36.7724609375,-36.5771484375,-37.5537109375,-38.6279296875,-39.6044921875,-39.5556640625,-39.8974609375,-40.4833984375,-41.2158203125,-42.0947265625,-42.9248046875,-43.5595703125,-43.8525390625,-44.3408203125,-44.3896484375,-45.5615234375,-46.0009765625,-46.5380859375,-46.7333984375,-45.6591796875,-44.0966796875,-43.0224609375,-41.7041015625,-40.1416015625,-39.0185546875,-37.5537109375,-37.0166015625,-37.1630859375,-36.4794921875,-36.1865234375,-36.0400390625,-36.7236328125,-37.5048828125,-37.7978515625,-38.4814453125,-38.8720703125,-39.5068359375,-40.0439453125,-39.9462890625,-41.3623046875,-41.8994140625,-42.2412109375,-42.7783203125,-43.2177734375,-44.3408203125,-44.7314453125,-45.4150390625,-46.3916015625,-46.5380859375,-46.5380859375,-46.9775390625,-46.7333984375,-45.4638671875,-44.3408203125,-42.9736328125,-41.1669921875,-40.7275390625,-38.4814453125,-37.8955078125,-37.8466796875,-37.1142578125,-37.0654296875,-37.1142578125,-37.9443359375,-38.0908203125,-38.6767578125,-38.8232421875,-39.3603515625,-40.2392578125,-40.5322265625,-41.8994140625,-41.7041015625,-42.0458984375,-43.6572265625,-43.5595703125,-44.5849609375,-45.0732421875,-45.7080078125,-46.4404296875,-46.5380859375,-47.5634765625,-48.2958984375,-48.4423828125,-48.1005859375,-47.4658203125,-45.7568359375,-45.2685546875,-44.2431640625,-42.0947265625,-40.0927734375,-38.8720703125,-37.8955078125,-38.0419921875,-37.3095703125,-37.3583984375,-37.4560546875,-37.7490234375,-37.5537109375,-38.2861328125,-38.3837890625,-39.3603515625,-39.7998046875,-40.1904296875,-41.2646484375,-41.2158203125,-42.2412109375,-42.5830078125,-43.7548828125,-44.3896484375,-44.9755859375,-45.1708984375,-45.7568359375,-46.4892578125,-47.1728515625,-48.0029296875,-48.2470703125,-48.1982421875,-47.4169921875,-46.2451171875,-44.9267578125,-43.4619140625,-41.8994140625,-40.3857421875,-38.7744140625,-38.0908203125,-37.1142578125,-36.8212890625,-37.0166015625,-36.9677734375,-36.9677734375,-37.7001953125,-37.9931640625,-38.6767578125,-38.3349609375,-39.5068359375,-39.7509765625,-40.4345703125,-41.1181640625,-42.2900390625,-43.0224609375,-43.6572265625,-44.6337890625,-44.7314453125,-45.5126953125,-45.7080078125,-46.5869140625,-47.4658203125,-47.7099609375,-48.3935546875,-47.3681640625,-46.4892578125,-45.1708984375,-44.2431640625,-42.4365234375,-40.7275390625,-39.4091796875,-38.9208984375,-38.5791015625,-38.9697265625,-38.6279296875,-38.6767578125,-39.2626953125,-39.3115234375,-39.5068359375,-40.3857421875,-40.9228515625,-41.7529296875,-42.2900390625,-43.0712890625,-43.5595703125,-43.9990234375,-44.7802734375,-45.2685546875,-46.0498046875,-46.7333984375,-46.8798828125,-48.1005859375,-48.9794921875,-49.0771484375,-49.7119140625,-49.9072265625,-49.8095703125,-48.8330078125,-47.3193359375,-46.1474609375,-44.9755859375,-43.2177734375,-41.6064453125,-40.2880859375,-40.3857421875,-39.8974609375,-39.1650390625,-38.8232421875,-39.4580078125,-40.2392578125,-39.7998046875,-40.9716796875,-40.8251953125,-41.5576171875,-42.7783203125,-43.2177734375,-43.6572265625,-43.9990234375,-44.5361328125,-45.2197265625,-45.9033203125,-46.7333984375,-46.3916015625,-47.8076171875,-47.7587890625,-48.7841796875,-49.5166015625,-49.8583984375,-49.4189453125,-49.4677734375,-47.7099609375,-46.7822265625,-45.4638671875,-44.3408203125,-42.3876953125,-40.8251953125,-39.8974609375,-40.1416015625,-40.4833984375,-39.2138671875,-39.4580078125,-39.9462890625,-40.3857421875,-40.6298828125,-41.0205078125,-41.7529296875,-41.8017578125,-42.2900390625,-43.7548828125,-44.0478515625,-45.0732421875,-45.3173828125,-46.3427734375,-46.3427734375,-46.7822265625,-47.4658203125,-47.7099609375,-48.6376953125,-49.1259765625,-49.1748046875,-50.3466796875,-49.7607421875,-48.0029296875,-47.1240234375,-45.7568359375,-44.0966796875,-42.2412109375,-41.1669921875,-40.4833984375,-40.5322265625,-40.4833984375,-40.2392578125,-40.7275390625,-41.0205078125,-41.6552734375,-41.8994140625,-42.0947265625,-43.2666015625,-43.6572265625,-44.6337890625,-44.9267578125,-46.0498046875,-45.7568359375,-45.7080078125,-46.2939453125,-47.4169921875,-48.3935546875,-48.3935546875,-48.9794921875,-50.3955078125,-49.9560546875,-50.2490234375,-50.5908203125,-49.1748046875,-48.2958984375,-47.1728515625,-45.9521484375,-43.9501953125,-42.4365234375,-40.4833984375,-39.5068359375,-39.0185546875,-38.7255859375,-39.0185546875,-37.8466796875,-38.5791015625,-38.7744140625,-38.7255859375,-39.7509765625,-39.8974609375,-40.3857421875,-41.7529296875,-42.2900390625,-42.5830078125,-43.9990234375,-44.2919921875,-44.1455078125,-45.6591796875,-46.2451171875,-47.2216796875,-47.3681640625,-48.4423828125,-48.2958984375,-48.6376953125,-49.3701171875,-47.9541015625,-47.1240234375,-45.4150390625,-43.7548828125,-42.2412109375,-40.0927734375,-38.2861328125,-37.8955078125,-37.4560546875,-36.6259765625,-36.6259765625,-36.7236328125,-36.5283203125,-37.4072265625,-37.7978515625,-38.3349609375,-39.7509765625,-40.5322265625,-41.2646484375,-42.0458984375,-42.2900390625,-43.5107421875,-45.0732421875,-44.7802734375,-46.1474609375,-47.0751953125,-48.1982421875,-49.0283203125,-49.4677734375,-50.5419921875,-50.9326171875,-50.4443359375,-49.8583984375,-48.1005859375,-47.4658203125,-45.5126953125,-43.8525390625,-42.1923828125,-40.6787109375,-40.5322265625,-40.9228515625,-41.3623046875,-40.5810546875,-40.8740234375,-42.1435546875,-42.5830078125,-43.6572265625,-43.7060546875,-45.1220703125,-46.4404296875,-46.8310546875,-48.0517578125,-48.5888671875,-49.6142578125,-50.6884765625,-51.6162109375,-52.5927734375,-53.2763671875,-53.6181640625,-54.6435546875,-55.7666015625,-55.5224609375,-56.4501953125,-56.8408203125,-55.3271484375,-53.8134765625,-52.4462890625,-50.1025390625,-48.6376953125,-46.4892578125,-45.4150390625,-45.1220703125,-44.6826171875,-44.9755859375,-44.0478515625,-45.2197265625,-46.3916015625,-46.6357421875,-46.9287109375,-48.6376953125,-48.7841796875,-49.5654296875,-50.5908203125,-50.9326171875,-52.0068359375,-53.4716796875,-53.7646484375,-54.3994140625,-55.0830078125,-55.9619140625,-57.1826171875,-57.3779296875,-58.0615234375,-58.8427734375,-58.7451171875,-58.5009765625,-56.4990234375,-55.6201171875,-54.5458984375,-52.6904296875,-51.0791015625,-49.3212890625,-49.8095703125,-49.4677734375,-48.8818359375,-49.0283203125,-49.0771484375,-49.4677734375,-50.5419921875,-50.2490234375,-51.0791015625,-51.3232421875,-52.2509765625,-53.5693359375,-54.2529296875,-54.7900390625,-54.8388671875,-56.3525390625,-57.1337890625,-57.3291015625,-58.3544921875,-59.2822265625,-59.2822265625,-59.4287109375,-60.3564453125,-61.4794921875,-61.2841796875,-59.4775390625,-58.9404296875,-57.8662109375,-56.6455078125,-54.5458984375,-52.7880859375,-51.5185546875,-50.8837890625,-50.9326171875,-50.9326171875,-50.1025390625,-50.2001953125,-51.2255859375,-51.0791015625,-51.9580078125,-52.4951171875,-53.0322265625,-53.8134765625,-54.6923828125,-55.1806640625,-55.8642578125,-55.9619140625,-57.2314453125,-57.8173828125,-58.7939453125,-59.1357421875,-59.8193359375,-61.3330078125,-61.0400390625,-62.1630859375,-62.4072265625,-62.5048828125,-60.9912109375,-59.4775390625,-59.0869140625,-56.8408203125,-54.9853515625,-53.1298828125,-51.9580078125,-51.8115234375,-51.8115234375,-51.4697265625,-51.0302734375,-51.0302734375,-51.9091796875,-52.0068359375,-52.9345703125,-52.9345703125,-52.8369140625,-53.8623046875,-55.2294921875,-55.2783203125,-55.6689453125,-56.1083984375,-57.0849609375,-57.4755859375,-58.3056640625,-58.9892578125,-58.7939453125,-59.6240234375,-60.4541015625,-61.2353515625,-61.1376953125,-60.3076171875,-58.9892578125,-57.9638671875,-56.6943359375,-54.6923828125,-52.7880859375,-51.4208984375,-50.2490234375,-50.5419921875,-50.5419921875,-49.7119140625,-50.2001953125,-50.0048828125,-50.2978515625,-51.0302734375,-50.7861328125,-51.4697265625,-52.5927734375,-52.5927734375,-53.9599609375,-54.1552734375,-54.7412109375,-55.0341796875,-56.1572265625,-56.5478515625,-57.1337890625,-58.3056640625,-58.0615234375,-59.3798828125,-59.4775390625,-59.2822265625,-60.1611328125,-59.2333984375,-58.1103515625,-56.3037109375,-55.0830078125,-53.4228515625,-52.2021484375,-50.1025390625,-48.5888671875,-48.6376953125,-48.2958984375,-47.8564453125,-48.0517578125,-49.2236328125,-48.7353515625,-49.2236328125,-50.3466796875,-50.4931640625,-50.6396484375,-51.6162109375,-52.1533203125,-52.7880859375,-53.3251953125,-53.5693359375,-53.7158203125,-55.1806640625,-55.7666015625,-56.4501953125,-56.6943359375,-57.0361328125,-57.8662109375,-58.3056640625,-58.6474609375,-58.4521484375,-57.3779296875,-55.9619140625,-53.5205078125,-52.1533203125,-50.2978515625,-48.2470703125,-47.0751953125,-47.7587890625,-47.1728515625,-47.0263671875,-46.5869140625,-46.9775390625,-47.8076171875,-48.7353515625,-50.3955078125,-51.8115234375,-53.9111328125,-54.4970703125,-55.6201171875,-56.6943359375,-57.5732421875,-58.5986328125,-58.3056640625,-59.2333984375,-59.8193359375,-60.6494140625,-61.0400390625,-61.1376953125,-61.7236328125,-62.1630859375,-61.8212890625,-60.5029296875,-58.5009765625,-57.7685546875,-55.7666015625,-54.1552734375,-52.4462890625,-51.2744140625,-51.7626953125,-51.7626953125,-50.9814453125,-51.3720703125,-51.7138671875,-51.8115234375,-52.8369140625,-53.2275390625,-54.1552734375,-54.3505859375,-55.4248046875,-56.0107421875,-56.8408203125,-57.6708984375,-57.9150390625,-59.3798828125,-59.4775390625,-60.2099609375,-60.6982421875,-61.6259765625,-61.8701171875,-62.2119140625,-62.9443359375,-62.9443359375,-61.9677734375,-60.5517578125,-58.9892578125,-57.6220703125,-55.5224609375,-53.1787109375,-53.0810546875,-52.1044921875,-52.0556640625,-52.0068359375,-51.7626953125,-52.0556640625,-52.4462890625,-53.0322265625,-53.7158203125,-54.1552734375,-54.6923828125,-55.1806640625,-55.3271484375,-57.1826171875,-57.6708984375,-58.3544921875,-59.0380859375,-60.1123046875,-60.5029296875,-60.9912109375,-61.8212890625,-62.0166015625,-62.3583984375,-63.0908203125,-63.7744140625,-63.1396484375,-62.7490234375,-61.4306640625,-59.9169921875,-58.3544921875,-56.5966796875,-55.1806640625,-54.2529296875,-53.4228515625,-53.3740234375,-52.7880859375,-52.4462890625,-53.0810546875,-53.2275390625,-53.8134765625,-54.2041015625,-54.4970703125,-55.2783203125,-55.8642578125,-56.7431640625,-57.0849609375,-57.3291015625,-58.0126953125,-59.0869140625,-59.5751953125,-60.0146484375,-61.1865234375,-61.4794921875,-61.6748046875,-62.2119140625,-62.7001953125,-63.2373046875,-62.0654296875,-60.7958984375,-59.1845703125,-58.5009765625,-56.7431640625,-55.3271484375,-53.7158203125,-53.8134765625,-53.5693359375,-52.9833984375,-52.4951171875,-52.7880859375,-53.3251953125,-53.6669921875,-54.0087890625,-54.7412109375,-55.4736328125,-55.6201171875,-56.4013671875,-56.5966796875,-57.0849609375,-57.7685546875,-58.0615234375,-59.3310546875,-59.5751953125,-59.4287109375,-61.0888671875,-61.4794921875,-61.3330078125,-62.2119140625,-61.8212890625,-60.8935546875,-59.3310546875,-58.4033203125,-56.7919921875,-54.9853515625,-53.3251953125,-52.2998046875,-51.2255859375,-51.0791015625,-50.7861328125,-50.0048828125,-50.8837890625,-50.6884765625,-50.8349609375,-51.5673828125,-51.4697265625,-52.4462890625,-52.2998046875,-53.3251953125,-53.4228515625,-54.4482421875,-55.1806640625,-55.5224609375,-55.6689453125,-56.3525390625,-56.9384765625,-57.3291015625,-57.9638671875,-58.4521484375,-59.2333984375,-59.1357421875,-58.6962890625,-58.0126953125,-55.7666015625,-53.9599609375,-52.5439453125,-50.7861328125,-49.0771484375,-48.0517578125,-47.4658203125,-47.5146484375,-47.4658203125,-47.3681640625,-46.8310546875,-47.7099609375,-47.2216796875,-48.1982421875,-48.9794921875,-49.1748046875,-49.7607421875,-49.8583984375,-50.6396484375,-51.9091796875,-51.5673828125,-52.9345703125,-53.0322265625,-53.8134765625,-54.0576171875,-54.5947265625,-55.3759765625,-55.8642578125,-55.7666015625,-54.5947265625,-53.4228515625,-52.1044921875,-50.4931640625,-48.4912109375,-47.2705078125,-45.9521484375,-45.0732421875,-45.2685546875,-44.7802734375,-44.7314453125,-44.7314453125,-44.6337890625,-44.8291015625,-45.9033203125,-46.0498046875,-47.2216796875,-48.1005859375,-48.5888671875,-49.1259765625,-50.0048828125,-50.2001953125,-51.1767578125,-51.9091796875,-52.5439453125,-53.7646484375,-54.2529296875,-54.5947265625,-55.1318359375,-55.7177734375,-55.2783203125,-53.9599609375,-52.8369140625,-51.1279296875,-49.5654296875,-47.4169921875,-46.5380859375,-45.2197265625,-44.8291015625,-45.1220703125,-44.6826171875,-44.4873046875,-44.5849609375,-45.7080078125,-46.1962890625,-46.7822265625,-46.9775390625,-48.0029296875,-48.6865234375,-49.6142578125,-50.0537109375,-51.1279296875,-51.7626953125,-52.5439453125,-53.1787109375,-54.4482421875,-54.9365234375,-55.4736328125,-56.1083984375,-56.5478515625,-56.7919921875,-56.7431640625,-54.5458984375,-53.8134765625,-52.5439453125,-51.1279296875,-49.4677734375,-47.8076171875,-47.6123046875,-47.2705078125,-46.7822265625,-46.6357421875,-46.3916015625,-46.9775390625,-47.3681640625,-47.7099609375,-48.4423828125,-48.8330078125,-50.0537109375,-50.6884765625,-51.7138671875,-52.0556640625,-52.8369140625,-53.3740234375,-54.2529296875,-54.2529296875,-54.6923828125,-55.7666015625,-56.7431640625,-56.7431640625,-57.4267578125
PPG_subj_04,72,M,Y,Diabetic (Type 2),96,33.9558,Earlobe,126.1767578125,0.185546875,0.185546875,0.185546875,0.185546875,0.185546875,0.185546875,86.3134765625,119.2919921875,118.5107421875,117.1435546875,116.6064453125,115.2880859375,114.6533203125,114.2138671875,114.1650390625,114.9462890625,115.0439453125,115.6787109375,116.8505859375,116.7041015625,117.7783203125,117.8271484375,118.8037109375,118.4130859375,119.3896484375,120.0244140625,120.2197265625,120.8544921875,121.1962890625,122.0751953125,121.0986328125,121.4892578125,121.2939453125,121.1962890625,119.9267578125,120.3662109375,120.1708984375,119.3896484375,119.4873046875,118.4130859375,117.9248046875,117.3388671875,116.5087890625,115.8740234375,115.6298828125,115.1416015625,116.1181640625,116.0693359375,117.1923828125,117.8759765625,117.5830078125,118.4130859375,118.9501953125,118.8525390625,120.3662109375,120.6591796875,120.7080078125,121.1474609375,121.7333984375,122.3193359375,121.3916015625,121.2451171875,120.9521484375,120.5126953125,120.5615234375,119.3408203125,119.6337890625,118.6083984375,117.0947265625,117.3388671875,116.2158203125,116.3134765625,115.0439453125,114.5556640625,114.0673828125,113.2861328125,112.1630859375,112.5537109375,113.1396484375,113.3837890625,114.0673828125,114.0185546875,115.0927734375,115.4833984375,115.6298828125,115.8740234375,116.5087890625,116.1181640625,116.2158203125,116.0693359375,115.7763671875,116.4599609375,116.6552734375,116.1669921875,114.9951171875,115.6787109375,114.8486328125,114.6533203125,114.3603515625,113.3837890625,111.9189453125,111.8212890625,110.6494140625,110.4052734375,108.5986328125,108.6474609375,107.5732421875,106.8896484375,106.5966796875,106.2548828125,106.4501953125,108.5009765625,108.5986328125,109.0380859375,110.5517578125,111.3330078125,112.4560546875,112.9443359375,113.3349609375,114.2626953125,114.7509765625,115.0927734375,114.8486328125,115.0439453125,114.4580078125,114.6044921875,114.8974609375,114.7021484375,114.2626953125,113.4814453125,113.5791015625,112.7490234375,112.4072265625,112.2119140625,111.6748046875,110.8935546875,110.6982421875,110.2099609375,109.6240234375,108.5986328125,108.0615234375,108.9404296875,110.6494140625,110.6005859375,111.1865234375,111.4794921875,113.1884765625,114.1162109375,114.6533203125,114.1162109375,114.8974609375,116.5087890625,116.3134765625,116.8017578125,116.9970703125,117.6318359375,118.1689453125,117.3388671875,116.6552734375,117.0947265625,117.1435546875,115.9228515625,114.6533203125,114.7021484375,113.7744140625,114.1162109375,113.4814453125,112.4560546875,111.9189453125,112.0654296875,110.6005859375,110.1123046875,109.3310546875,108.8916015625,109.4287109375,110.0634765625,110.8935546875,111.7724609375,112.7978515625,113.4326171875,113.9208984375,114.3603515625,114.8974609375,115.3857421875,115.8740234375,116.2158203125,116.3623046875,116.8505859375,116.8017578125,116.8017578125,116.2646484375,115.9228515625,115.3369140625,115.3857421875,114.7998046875,113.6767578125,112.9931640625,112.4560546875,111.7724609375,111.2841796875,110.5029296875,109.4287109375,108.9892578125,108.6474609375,108.3056640625,108.5986328125,109.0380859375,110.0634765625,111.0400390625,112.0166015625,112.4560546875,113.7744140625,115.6298828125,116.0205078125,117.1435546875,117.3388671875,117.9248046875,119.3896484375,119.5361328125,119.4873046875,119.5361328125,119.7802734375,118.6572265625,118.7060546875,118.1689453125,118.2177734375,117.7294921875,116.5576171875,116.2646484375,116.3623046875,115.7275390625,114.8974609375,113.9697265625,113.5791015625,112.3583984375,112.0166015625,111.3818359375,111.9189453125,112.1630859375,113.7255859375,113.9208984375,114.7509765625,115.0439453125,116.4111328125,116.6552734375,117.4853515625,118.1201171875,118.6572265625,119.3896484375,119.4873046875,118.6572265625,118.7060546875,119.4384765625,119.4873046875,119.0478515625,118.4130859375,118.4130859375,117.0458984375,115.8740234375,116.0205078125,115.4345703125,114.7509765625,113.3837890625,112.0166015625,110.9423828125,110.7958984375,109.3310546875,108.4521484375,107.8662109375,109.2333984375,109.7705078125,109.7216796875,110.8935546875,111.6748046875,111.5283203125,112.4072265625,112.7001953125,113.4326171875,113.9208984375,115.0439453125,114.4091796875,114.7998046875,114.9462890625,114.4580078125,114.2138671875,113.9208984375,112.8955078125,113.3349609375,112.8466796875,111.4306640625,110.6494140625,110.2099609375,109.5751953125,109.0380859375,107.9638671875,107.0361328125,105.8642578125,105.4248046875,104.7412109375,104.3994140625,104.5458984375,105.2294921875,106.7431640625,107.3779296875,108.2080078125,109.9169921875,111.1865234375,111.8701171875,112.0654296875,113.0419921875,114.0185546875,114.2138671875,114.6533203125,114.5068359375,114.6533203125,114.5556640625,113.7255859375,115.1416015625,114.2138671875,113.6279296875,113.2373046875,112.9931640625,112.6513671875,111.6748046875,110.9423828125,110.6494140625,109.5263671875,109.6240234375,108.2080078125,107.8173828125,106.7919921875,106.9384765625,107.8662109375,108.0126953125,108.6962890625,108.8916015625,110.4541015625,110.6982421875,111.7236328125,111.9677734375,112.3095703125,113.2861328125,113.5302734375,113.8720703125,113.2373046875,114.0185546875,113.4326171875,113.5302734375,113.0908203125,112.9931640625,111.7236328125,112.0654296875,110.2099609375,110.5029296875,109.1357421875,108.5498046875,108.0615234375,107.1826171875,106.2548828125,106.3037109375,105.5224609375,104.8388671875,103.6181640625,105.0830078125,104.6435546875,105.5712890625,105.1806640625,105.8154296875,106.6455078125,107.3779296875,108.2568359375,107.7685546875,108.6962890625,109.0380859375,110.2587890625,108.6474609375,109.2333984375,108.9892578125,108.6962890625,108.0126953125,107.0849609375,106.9873046875,106.1572265625,105.2783203125,104.5947265625,104.1552734375,103.0322265625,102.6904296875,101.9580078125,101.1279296875,100.4443359375,99.7607421875,98.6865234375,97.7099609375,97.3193359375,97.4169921875,98.4912109375,98.5888671875,98.7353515625,99.6630859375,100.5419921875,101.5673828125,101.9580078125,102.2998046875,102.7392578125,104.1552734375,104.7412109375,104.2041015625,105.1318359375,105.2294921875,104.3994140625,104.9853515625,105.4248046875,104.2041015625,104.6923828125,104.7412109375,103.8623046875,103.0810546875,102.7392578125,102.8369140625,101.2255859375,100.9326171875,99.8095703125,99.0283203125,98.1982421875,98.6376953125,97.9052734375,98.5888671875,99.1748046875,99.9072265625,100.7373046875,100.7373046875,101.1767578125,101.7626953125,102.7880859375,103.6181640625,103.3740234375,104.3994140625,104.6435546875,105.2294921875,104.8388671875,105.1806640625,104.9853515625,105.0341796875,104.0576171875,104.1552734375,103.9111328125,103.2763671875,102.2509765625,101.7138671875,101.5185546875,100.6396484375,100.1025390625,99.2236328125,99.2236328125,98.6376953125,97.9541015625,97.0751953125,97.1240234375,97.7587890625,98.7841796875,99.1748046875,99.2236328125,100.1025390625,100.6396484375,101.5673828125,102.3974609375,102.0068359375,103.2763671875,103.9111328125,103.8134765625,103.9111328125,103.6181640625,103.6669921875,103.4716796875,103.7646484375,103.0322265625,102.2509765625,102.4951171875,101.6650390625,101.0791015625,101.0791015625,100.1513671875,99.4189453125,98.8330078125,98.2470703125,97.6611328125,97.3193359375,96.6357421875,95.4638671875,94.9755859375,94.9267578125,95.6103515625,97.2705078125,96.6845703125,97.7099609375,98.0517578125,98.6865234375,100.0537109375,100.8349609375,100.2490234375,100.8837890625,101.2744140625,102.2509765625,102.9833984375,103.5205078125,103.5693359375,103.1787109375,102.9833984375,104.3017578125,104.1064453125,103.1298828125,103.5693359375,103.5205078125,103.3740234375,103.4228515625,103.2763671875,102.6416015625,102.9345703125,102.2021484375,101.1279296875,101.1767578125,101.1279296875,100.4443359375,101.9580078125,102.5927734375,103.2763671875,103.4716796875,105.1806640625,105.7177734375,106.5478515625,107.0361328125,108.0615234375,108.7939453125,109.7216796875,109.7705078125,110.3076171875,110.3564453125,110.0634765625,110.2587890625,110.3564453125,110.0146484375,110.3076171875,109.2333984375,109.1845703125,108.5498046875,108.2080078125,107.7685546875,107.1826171875,106.4501953125,106.0107421875,105.6201171875,104.8388671875,104.2529296875,103.8623046875,103.4228515625,104.4970703125,105.2783203125,105.5224609375,106.2060546875,107.0361328125,107.7197265625,109.1845703125,109.9658203125,109.1845703125,110.3076171875,111.0888671875,111.1376953125,111.7236328125,111.2353515625,111.7236328125,110.9912109375,110.8447265625,110.0146484375,109.6240234375,109.8193359375,108.4521484375,107.9638671875,107.3779296875,106.8896484375,106.1572265625,105.2294921875,104.3505859375,104.2529296875,103.4228515625,101.9091796875,101.9091796875,102.0068359375,102.7392578125,103.6669921875,103.8134765625,104.5947265625,105.4736328125,106.8896484375,107.4267578125,107.4267578125,108.0615234375,108.6962890625,109.9169921875,109.8681640625,110.4541015625,110.3564453125,110.4541015625,110.9912109375,110.6494140625,110.0634765625,109.8193359375,110.6494140625,109.5751953125,108.9892578125,108.4521484375,108.5986328125,108.0126953125,106.8408203125,106.6943359375,105.5224609375,104.8876953125,104.3017578125,104.3017578125,105.7177734375,105.8642578125,106.2548828125,106.6943359375,108.1103515625,108.9404296875,109.5751953125,110.0146484375,110.7470703125,111.8701171875,111.2841796875,111.3818359375,112.4072265625,111.3330078125,111.1865234375,111.0888671875,110.4541015625,109.9658203125,108.7939453125,108.7939453125,107.5732421875,107.0849609375,106.1572265625,105.9130859375,105.4248046875,104.5458984375,103.9111328125,102.3974609375,101.3232421875,99.4677734375,100.7861328125,100.3955078125,100.8349609375,101.0302734375,101.6162109375,102.1044921875,102.1044921875,103.5205078125,104.0087890625,104.1064453125,104.3994140625,104.3994140625,105.4248046875,104.9365234375,104.3017578125,103.9111328125,103.3251953125,103.0810546875,102.4951171875,101.3232421875,101.7138671875,100.4931640625,99.9560546875,99.2724609375,98.3935546875,98.0517578125,96.8798828125,95.5615234375,96.0009765625,95.5126953125,94.9267578125,94.7802734375,96.0009765625,96.2939453125,97.0751953125,98.0029296875,98.4423828125,99.6630859375,100.4931640625,101.1279296875,100.6884765625,102.0556640625,102.7880859375,102.7880859375,103.0810546875,103.1298828125,103.4228515625,102.7880859375,103.2275390625,102.5439453125,101.9580078125,101.8603515625,101.4208984375,100.7373046875,100.0537109375,99.6142578125,98.9306640625,98.6865234375,97.8076171875,96.7333984375,96.4404296875,96.4892578125,97.2216796875,98.2470703125,97.5634765625,98.8330078125,99.4677734375,99.6630859375,101.1279296875,101.7138671875,101.5185546875,102.2998046875,103.0322265625,103.4716796875,103.0810546875,103.2763671875,103.1298828125,103.1298828125,102.0556640625,102.0068359375,101.9580078125,101.1279296875,100.7373046875,100.6396484375,99.2236328125,99.0771484375,98.1494140625,97.4169921875,96.7333984375,95.3173828125,94.1943359375,92.6318359375,93.5107421875,94.1943359375,94.7802734375,94.5849609375,94.6826171875,95.9521484375,96.9287109375,97.4658203125,97.8076171875,97.4658203125,98.2958984375,98.9306640625,99.0771484375,98.5888671875,98.5888671875,98.3935546875,98.3447265625,97.7099609375,96.9775390625,96.9287109375,96.4404296875,96.0986328125,95.2197265625,95.0244140625,93.6083984375,92.9248046875,92.2900390625,92.0458984375,91.6064453125,89.9951171875,90.1904296875,91.4111328125,92.1435546875,92.7783203125,93.2666015625,94.5361328125,96.2451171875,96.7822265625,97.2705078125,98.2958984375,98.9306640625,99.7119140625,100.4931640625,101.5185546875,101.3232421875,101.1767578125,101.6162109375,101.7626953125,102.3486328125,101.7626953125,101.3720703125,100.8349609375,100.4931640625,100.2001953125,100.0537109375,99.2724609375,99.0771484375,98.5888671875,97.7099609375,96.6845703125,96.6357421875,97.4169921875,98.4423828125,98.9306640625,99.4677734375,100.6396484375,101.9091796875,103.5693359375,103.9111328125,104.3017578125,106.1083984375,105.7666015625,106.6455078125,107.8662109375,107.2314453125,108.1591796875,107.4755859375,107.4755859375,107.9150390625,106.3037109375,106.1572265625,105.8642578125,105.2783203125,104.7412109375,104.9365234375,103.3740234375,102.5439453125,102.1533203125,101.4208984375,100.1513671875,99.3701171875,99.2724609375,100.0048828125,100.9326171875,101.3720703125,102.4462890625,104.0087890625,104.9853515625,105.1318359375,106.9873046875,107.1337890625,107.4755859375,107.7685546875,108.2080078125,108.5498046875,108.1591796875,108.6474609375,108.1591796875,108.0126953125,107.2802734375,107.0849609375,106.4501953125,105.8154296875,105.6201171875,104.6435546875,104.1552734375,103.8134765625,102.9833984375,102.4462890625,100.4931640625,101.6650390625,101.1767578125,102.3486328125,102.5927734375,103.9599609375,104.4482421875,106.2060546875,107.6708984375,109.6728515625,109.4287109375,110.4541015625,112.0654296875,112.8955078125,112.7978515625,113.2861328125,113.6279296875,113.5791015625,113.4814453125,113.3837890625,112.5048828125,112.0654296875,111.6748046875,111.5283203125,110.2099609375,109.5751953125,108.6962890625,108.7451171875,108.3056640625,107.6708984375,106.5966796875,106.1083984375,104.9853515625,106.4013671875,106.2548828125,106.8896484375,107.7685546875,108.6962890625,109.3798828125,111.2841796875,112.0654296875,111.7724609375,112.4560546875,113.7744140625,113.1396484375,114.0673828125,113.2373046875,113.3349609375,113.1884765625,111.9677734375,110.8935546875,110.9423828125,109.3798828125,108.6474609375,108.0615234375,107.0361328125,106.2060546875,105.5224609375,103.8134765625,102.8857421875,101.8115234375,100.5908203125,100.0048828125,98.6865234375,98.8330078125,99.3212890625,99.3212890625,100.2001953125,100.4443359375,101.5673828125,102.2509765625,103.2275390625,103.8623046875,104.0087890625,104.5458984375,105.0341796875,104.5458984375,104.5947265625,103.7158203125,103.8623046875,102.8369140625,102.9833984375,102.1533203125,101.3720703125,100.7373046875,100.2490234375,99.4677734375,100.3466796875,99.4189453125,98.3447265625,97.9052734375,95.9521484375,96.3916015625,95.6103515625,94.8291015625,96.2939453125,96.4404296875,97.2705078125,97.9541015625,99.1748046875,100.4443359375,101.8603515625,102.0556640625,102.7392578125,102.7880859375,102.6904296875,103.1298828125,103.7158203125,103.5693359375,103.6181640625,103.8623046875,103.8134765625,102.5927734375,102.2998046875,101.4697265625,101.3232421875,100.4443359375,99.4677734375,99.7119140625,99.1259765625,97.6123046875,96.9287109375,96.4404296875,96.0009765625,95.1220703125,94.8291015625,95.4150390625,95.9033203125,96.3427734375,95.9521484375,96.1962890625,98.1494140625,98.2470703125,99.8095703125,99.0283203125,100.2978515625,100.1513671875,100.6884765625,101.1279296875,100.7861328125,100.2490234375,100.2001953125,100.2978515625,99.3212890625,98.2470703125,98.1494140625,97.2216796875,96.4892578125,95.3173828125,94.8779296875,94.1943359375,93.7060546875,92.4853515625,91.8505859375,90.8740234375,89.7021484375,89.1650390625,88.4326171875,89.5556640625,89.7021484375,89.9462890625,89.9951171875,90.3857421875,91.8994140625,92.4853515625,92.9736328125,93.0712890625,93.2666015625,94.3896484375,94.7802734375,94.0478515625,94.6337890625,94.3408203125,94.9267578125,94.7314453125,94.4384765625,93.8525390625,93.9501953125,93.5107421875,92.3876953125,92.4365234375,91.9970703125,91.6064453125,91.9482421875,91.2158203125,91.1181640625,90.6298828125,90.3857421875,90.1416015625,91.4111328125,91.6064453125,93.1689453125,93.8037109375,94.8779296875,95.9033203125,97.5634765625,98.4912109375,99.1259765625,99.6142578125,100.7373046875,101.3720703125,101.8115234375,101.8603515625,102.1533203125,101.8603515625,103.0810546875,102.5439453125,101.9580078125,101.2744140625,102.0068359375,101.3720703125,101.0302734375,99.8095703125,99.8095703125,98.7841796875,98.7353515625,98.2470703125,97.6123046875,97.1728515625,96.3916015625,96.1962890625,96.1474609375,97.0263671875,97.2705078125,98.1982421875,99.0283203125,99.6630859375,100.2001953125,101.4208984375,101.9091796875,102.1044921875,102.7880859375,102.8857421875,102.6904296875,103.0322265625,103.5205078125,102.5927734375,101.9091796875,101.9091796875,100.9814453125,101.6162109375,100.2978515625,99.6630859375,99.5166015625,98.9306640625,97.8076171875,97.0263671875,96.5869140625,97.0751953125,96.2451171875,95.3173828125,94.7314453125,93.9990234375,93.6083984375,95.0732421875,96.0498046875,96.6357421875,96.9775390625,98.1982421875,100.0048828125,101.0302734375,101.7138671875,102.5439453125,103.2763671875,103.4716796875,104.2529296875,104.7900390625,104.5947265625,104.7412109375,105.1806640625,104.4970703125,104.6435546875,104.2041015625,104.0576171875,103.7158203125,102.9833984375,102.0068359375,102.2998046875,101.7138671875,100.9814453125,100.2978515625,100.1513671875,98.9794921875,98.2470703125,98.4912109375,98.9306640625,98.5400390625,100.0048828125,101.1767578125,101.8115234375,103.5205078125,104.2041015625,104.4482421875,105.1318359375,106.2548828125,106.4990234375,106.7919921875,106.6455078125,106.5478515625,106.3037109375,106.1572265625,105.7177734375,105.1806640625,104.8388671875,104.5458984375,103.4716796875,103.3251953125,102.6416015625,101.8603515625,101.2744140625,100.6396484375,99.7119140625,99.0771484375,97.5146484375,97.2216796875,96.7822265625,96.3916015625,97.0263671875,97.8564453125,97.4169921875,98.5888671875,99.4189453125,99.2236328125,100.3955078125,99.9072265625,100.1025390625,101.2255859375,101.7626953125,100.7373046875,101.1279296875,101.0791015625,101.0791015625,100.0537109375,100.3466796875,99.3701171875,99.0771484375,98.1982421875,97.2705078125,96.8798828125,95.5126953125,95.0732421875,93.9501953125,92.5830078125,92.1923828125,91.5576171875,90.6787109375,89.7998046875,89.4580078125,90.3857421875,91.4599609375,91.3623046875,91.7041015625,92.3876953125,93.5595703125,94.8779296875,95.5615234375,94.8779296875,95.7568359375,96.1962890625,96.5380859375,97.0751953125,97.6611328125,97.0263671875,97.2216796875,97.6611328125,97.1240234375,96.3916015625,96.6357421875,95.3662109375,95.8056640625,95.3173828125,94.4873046875,94.0966796875,93.5107421875,92.5341796875,91.9482421875,90.9716796875,90.1416015625,90.3857421875,91.5087890625,91.2646484375,92.0947265625,91.9482421875,92.6318359375,93.5107421875,94.2919921875,95.3662109375,95.0244140625,95.9033203125,95.7080078125,96.2939453125,96.4404296875,96.8310546875,96.4404296875,96.1474609375,95.6103515625,96.0498046875,95.1708984375,94.6826171875,94.4384765625,93.2666015625,93.3642578125,92.4853515625,92.3876953125,90.5322265625,90.3369140625,89.0673828125,88.1396484375,87.1142578125,87.0166015625,86.1376953125,86.9677734375,87.8466796875,87.1630859375,87.7490234375,88.4814453125,88.6279296875,89.3603515625,89.3115234375,89.3115234375,90.0927734375,90.1904296875,89.7509765625,91.0693359375,90.1416015625,89.7021484375,89.8486328125,89.4091796875,89.4580078125,88.6767578125,88.2373046875,88.3349609375,86.8701171875,86.4794921875,86.5283203125,85.2587890625,85.4052734375,84.4287109375,83.5498046875,83.4033203125,82.9150390625,82.5244140625,83.1103515625,84.3798828125,84.5751953125,85.8935546875,87.3583984375,87.9443359375,89.2626953125,89.7509765625,90.4345703125,91.2158203125,91.9482421875,92.8759765625,92.8759765625,93.2666015625,93.1201171875,93.9501953125,94.8291015625,94.2919921875,94.2919921875,93.4619140625,93.9990234375,92.9736328125,92.6318359375,92.1435546875,92.2900390625,91.7041015625,91.1669921875,91.0205078125,90.1416015625,89.8486328125,89.7021484375,89.8486328125,90.2880859375,90.7275390625,91.6064453125,92.0947265625,92.8759765625,93.9990234375,93.6083984375,94.8291015625,96.0986328125,96.0009765625,96.8310546875,97.0263671875,97.2705078125,97.3681640625,97.6611328125,97.3193359375,96.3916015625,96.6845703125,96.4404296875,96.1962890625,95.6591796875,94.1455078125,94.4384765625,94.1943359375,92.7294921875,91.9482421875,91.3623046875,90.1416015625,89.4091796875,87.9443359375,87.5537109375,87.3095703125,89.3115234375,89.3115234375,89.7509765625,89.7509765625,91.3623046875,92.1435546875,92.6806640625,93.4619140625,93.9013671875,94.3408203125,94.3408203125,95.4150390625,95.0732421875,94.9755859375,95.2197265625,94.9267578125,94.2919921875,94.3408203125,94.7802734375,93.8525390625,93.9501953125,93.0224609375,92.6318359375,92.8271484375,92.3876953125,91.8994140625,90.5322265625,91.1181640625,90.7763671875,89.7998046875,90.5322265625,90.7763671875,91.8505859375,93.2666015625,93.9990234375,94.5361328125,96.0009765625,97.7587890625,98.3935546875,98.4912109375,99.4189453125,100.9326171875,101.1279296875,102.0556640625,101.5673828125,102.3974609375,102.8369140625,102.1044921875,102.3974609375,102.4951171875,102.2021484375,101.3720703125,100.9814453125,100.7373046875,100.5908203125,99.5166015625,99.5166015625,98.1494140625,97.5634765625,96.6357421875,96.6845703125,96.0986328125,95.7568359375,96.3916015625,97.2705078125,97.9052734375,98.7353515625,98.7841796875,99.5654296875,100.1513671875,101.0791015625,101.1279296875,101.7626953125,102.4951171875,102.5927734375,102.7392578125,102.7880859375,102.8857421875,102.2509765625,101.5673828125,101.1279296875,101.2744140625,99.0771484375,98.5888671875,98.3935546875,97.4169921875,96.4404296875,95.2197265625,95.4638671875,93.9990234375,92.6806640625,91.5087890625,91.1669921875,90.5322265625,89.5068359375,89.3115234375,89.9462890625,90.1904296875,90.4833984375,91.4599609375,91.7041015625,92.0458984375,92.5830078125,92.9248046875,93.2666015625,94.5849609375,94.7314453125,94.0478515625,94.3896484375,94.4873046875,94.1943359375,93.9990234375,93.7548828125,93.7060546875,93.0224609375,93.3154296875,93.6572265625,92.2412109375,92.0947265625,91.9970703125,92.3876953125,90.7763671875,90.8251953125,90.4345703125,89.9951171875,89.5068359375,88.7255859375,88.7255859375,90.2392578125,90.9716796875,91.4599609375,92.4365234375,92.8271484375,93.3154296875,93.4130859375,94.0966796875,94.0966796875,94.5361328125,95.5126953125,95.1708984375,94.8291015625,95.0732421875,95.3662109375,94.6337890625,94.7802734375,93.9501953125,93.9013671875,93.4130859375,93.0712890625,92.1923828125,92.0947265625,91.8017578125,91.7041015625,90.9716796875,89.7998046875,89.0673828125,88.4326171875,87.8955078125,87.7001953125,86.5283203125,87.2119140625,87.7001953125,89.1162109375,88.5791015625,88.9208984375,89.3115234375,90.6298828125,91.1181640625,90.4345703125,91.3134765625,91.0693359375,92.1923828125,92.0947265625,91.8994140625,91.7529296875,91.7529296875,90.8251953125,90.6298828125,89.8974609375,89.4580078125,89.1162109375,87.9443359375,87.9443359375,87.0166015625,87.2119140625,86.4306640625,85.6494140625,84.9658203125,84.2822265625,83.2568359375,82.7197265625,82.0849609375,81.7919921875,82.0361328125,82.1826171875,83.2568359375,82.6708984375,84.0380859375,85.3076171875,84.7216796875,85.3564453125,85.6982421875,86.6748046875,86.7236328125,87.3583984375,87.6513671875,88.4326171875,89.2138671875,89.2138671875,89.6044921875,89.5556640625,89.1650390625,89.3115234375,89.7021484375,89.2138671875,89.4580078125,89.8974609375,89.8974609375,89.2626953125,88.7255859375,88.6279296875,88.9697265625,88.2373046875,88.2373046875,88.1884765625,88.2861328125,89.0185546875,90.1904296875,90.6298828125,91.6552734375,92.2900390625,93.3154296875,93.7060546875,94.6826171875,96.3916015625,96.0009765625,96.9775390625,97.5634765625,98.3935546875,98.0517578125,98.1982421875,98.5400390625,98.3447265625,98.1494140625,98.1494140625,97.7099609375,97.9541015625,97.6611328125,98.0517578125,97.4169921875,97.0751953125,96.3427734375,96.1474609375,96.0986328125,94.8291015625,94.1943359375,94.1455078125,92.9248046875,93.2177734375,93.6572265625,94.3408203125,94.6337890625,96.1474609375,96.4892578125,97.5634765625,98.8330078125,98.4912109375,98.7841796875,100.4443359375,99.8583984375,100.3955078125,101.7626953125,101.1767578125,101.4697265625,101.1767578125,100.3955078125,100.5419921875,100.0048828125,99.6142578125,99.2236328125,98.6865234375,97.5146484375,97.8076171875,97.4658203125,96.8310546875,96.0986328125,95.0732421875,94.2919921875,94.6337890625,93.0712890625,92.7294921875,92.1923828125,94.2431640625,95.2197265625,95.2685546875,96.2939453125,97.0263671875,99.7119140625,100.0048828125,101.6162109375,102.0068359375,103.0810546875,103.1787109375,104.6923828125,104.6435546875,105.2294921875,105.9619140625,106.0107421875,106.2060546875,106.3037109375,106.4501953125,105.6201171875,105.6689453125,104.5947265625,104.4970703125,103.9599609375,103.4228515625,103.7158203125,102.4951171875,102.3974609375,101.6650390625,100.7861328125,100.6396484375,100.2001953125,100.5419921875,101.4697265625,102.2509765625,103.0322265625,104.1064453125,104.7900390625,106.1083984375,106.5966796875,106.7919921875,108.3056640625,108.8916015625,109.3798828125,108.9892578125,109.5263671875,109.1845703125,109.2333984375,108.8916015625,108.6474609375,107.9150390625,106.8896484375,106.9384765625,106.4990234375,105.5224609375,105.0830078125,104.3505859375,102.2509765625,102.3974609375,101.2744140625,100.5419921875,99.4677734375,98.0517578125,97.4169921875,97.0263671875,97.4169921875,97.7099609375,97.8076171875,99.0771484375,99.0283203125,99.5654296875,100.2490234375,100.2490234375,101.5673828125,101.4697265625,100.8837890625,101.8115234375,102.2998046875,101.5185546875,101.9091796875,101.2255859375,100.4443359375,100.4443359375,100.3955078125,98.6865234375,98.7353515625,98.9306640625,97.6123046875,96.8798828125,96.5380859375,95.7568359375,94.9267578125,94.2919921875,92.7783203125,92.7294921875,91.9482421875,91.3623046875,91.4111328125,91.2646484375,92.5341796875,92.9736328125,93.7060546875,95.1220703125,96.0498046875,97.0263671875,97.2705078125,98.0029296875,98.5888671875,99.4189453125,100.2001953125,100.0048828125,99.7119140625,99.6630859375,99.8583984375,99.7119140625,99.0283203125,99.1748046875,98.1005859375,97.5634765625,97.1728515625,96.0498046875,96.0986328125,95.2197265625,94.9755859375,93.3642578125,93.0712890625,93.0224609375,92.0947265625,91.2158203125,90.9228515625,90.9228515625,91.2158203125,91.8017578125,92.3876953125,92.9736328125,93.0224609375,93.2177734375,94.0966796875,94.5361328125,95.0244140625,95.4638671875,96.2451171875,96.0498046875,96.8310546875,96.7333984375,95.7568359375,96.4892578125,96.3916015625,95.0244140625,94.8779296875,94.1943359375,93.7060546875,93.3642578125,93.4130859375,91.8017578125,91.3134765625,90.3857421875,90.0927734375,89.0185546875,87.9931640625,86.9677734375,86.3330078125,85.6494140625,85.5029296875,85.5029296875,85.7470703125,86.2841796875,86.7724609375,86.8212890625,87.5048828125,88.2373046875,88.5791015625,88.8232421875,89.8974609375,90.5322265625,91.0205078125,90.3857421875,90.6298828125,90.5810546875,90.6298828125,91.1669921875,89.7998046875,90.5810546875,89.4580078125,89.2138671875,88.1396484375,88.8720703125,88.3837890625,88.2861328125,87.8466796875,87.2119140625,86.8701171875,86.6748046875,86.2353515625,86.0400390625,86.0400390625,85.6005859375,87.1142578125,87.7001953125,88.6279296875,89.2626953125,91.0693359375,91.9482421875,92.7783203125,93.6083984375,93.9013671875,96.0009765625,96.0009765625,96.1962890625,96.7822265625,97.3681640625,97.4658203125,96.8310546875,97.3193359375,97.3193359375,97.0263671875,97.1728515625,97.0263671875,96.5380859375,95.9521484375,95.4638671875,94.4873046875,94.9267578125,95.5126953125,93.6572265625,93.7060546875,93.3154296875,92.6318359375,92.4853515625,92.5830078125,93.5107421875,94.5849609375,95.7568359375,96.0986328125,97.4658203125,98.3935546875,99.8095703125,100.2490234375,101.2255859375,102.1533203125,102.3974609375,102.7880859375,102.8857421875,103.6181640625,103.6669921875,103.3740234375,102.8369140625,103.5205078125,101.7138671875,101.0302734375,100.1025390625,100.4931640625,99.5654296875,99.2236328125,98.2470703125,97.7587890625,97.2216796875,96.6845703125,95.5615234375,95.0732421875,93.9013671875,93.8525390625,93.9990234375,95.2685546875,95.9521484375,96.9287109375,97.0263671875,98.6376953125,99.8583984375,101.1767578125,101.5673828125,102.2998046875,102.7880859375,103.3251953125,104.2529296875,104.3505859375,105.2783203125,104.6435546875,104.6923828125,104.7412109375,105.1806640625,104.4482421875,103.9599609375,103.3251953125,103.5205078125,103.0810546875,102.5439453125,101.8603515625,101.8115234375,101.6162109375,100.2490234375,100.7373046875,100.8349609375,100.2490234375,100.6396484375,102.0068359375,102.5439453125,103.9111328125,104.3505859375,105.9619140625,107.4755859375,108.4521484375,108.8916015625,109.7216796875,110.2587890625,111.3818359375,110.8935546875,110.5029296875,110.1611328125,110.7470703125,110.0634765625,109.8193359375,109.1845703125,108.4033203125,108.0615234375,108.4033203125,107.1826171875,106.2060546875,105.6689453125,105.1318359375,104.6435546875,102.9345703125,102.2509765625,101.5185546875,100.7373046875,100.1025390625,99.3701171875,100.2001953125,100.8349609375,102.2509765625,102.6416015625,103.4716796875,104.9365234375,105.9619140625,106.4501953125,106.4501953125,107.5732421875,107.6220703125,108.0615234375,108.2080078125,106.5966796875,107.2802734375,106.5966796875,106.6943359375,105.4736328125,104.6923828125,103.8134765625,103.2275390625,101.7626953125,101.8115234375,100.4443359375,99.1259765625,98.5888671875,97.1240234375,96.0986328125,94.9755859375,94.3408203125,93.8037109375,93.3154296875,93.2177734375,93.6572265625,94.4873046875,94.6826171875,95.6591796875,96.6357421875,96.8798828125,98.0029296875,98.2470703125,98.7353515625,98.9306640625,99.3212890625,99.8095703125,100.0537109375,99.9560546875,99.7607421875,99.4189453125,99.2236328125,98.4912109375,98.2958984375,98.0029296875,97.2705078125,97.2216796875,96.2939453125,96.2939453125,95.6591796875,95.0732421875,94.6337890625,93.5595703125,92.3388671875,91.1181640625,92.4853515625,93.0224609375,92.2412109375,93.0224609375,93.5107421875,94.5361328125,95.1708984375,96.4404296875,96.0009765625,96.4892578125,97.0263671875,97.0751953125,97.3681640625,97.1728515625,96.4404296875,96.4404296875,96.1474609375,95.7568359375,94.9755859375,94.3896484375,94.2919921875,93.3154296875,92.8759765625,92.1435546875,91.8017578125,91.5087890625,89.9951171875,89.9951171875,88.1396484375,88.0419921875,87.0166015625,85.2587890625,85.6005859375,85.2099609375,86.2841796875,86.2841796875,86.2353515625,86.4794921875,86.6259765625,88.2861328125,87.7490234375,88.2373046875,88.1396484375,88.6279296875,87.8955078125,88.1396484375,87.7490234375,87.8466796875,87.4560546875,87.4560546875,86.5283203125,86.3818359375,84.7216796875,84.4775390625,84.5751953125,83.2568359375,82.4755859375,81.7431640625,81.1083984375,80.2783203125,79.7900390625,79.0576171875,78.0322265625,77.3486328125,77.1533203125,77.2998046875,77.4462890625,78.4716796875,78.3740234375,79.5458984375,80.6201171875,81.3037109375,81.9384765625,82.5244140625,83.1591796875,84.5751953125,84.8681640625,85.0146484375,85.7958984375,85.9912109375,86.5771484375,86.6259765625,87.3583984375,86.3330078125,86.5771484375,86.6259765625,87.0654296875,86.0888671875,85.4052734375,85.7470703125,85.2587890625,84.9169921875,84.3310546875,83.4033203125,83.8427734375,83.9892578125,82.4267578125,82.5732421875,83.5986328125,83.9892578125,85.1611328125,85.7958984375,86.6748046875,88.1396484375,88.9208984375,90.3369140625,91.4111328125,92.1923828125,92.2412109375,92.9248046875,93.9501953125,93.8037109375,94.4384765625,94.2919921875,93.6572265625,93.8525390625,93.6083984375,93.6572265625,93.3642578125,93.1689453125,91.9482421875,92.2900390625,90.9228515625,90.8740234375,90.8740234375,89.3115234375,88.5302734375,88.5302734375,86.6748046875,86.9189453125,87.4560546875,87.9931640625,88.5302734375,88.9697265625,90.0439453125,90.9228515625,91.9482421875,93.5107421875,94.5849609375,95.5126953125,96.6845703125,96.8798828125,96.9775390625,97.7587890625,98.0517578125,97.2705078125,97.9541015625,97.4658203125,96.3916015625,96.6357421875,96.2451171875,95.2197265625,95.2685546875,94.3896484375,94.7802734375,93.8525390625,93.5107421875,92.7294921875,92.2900390625,91.8017578125,91.0693359375,90.8740234375,90.7763671875,91.8017578125,93.3154296875,94.5361328125,95.2197265625,97.8564453125,98.7353515625,101.0302734375,101.4208984375,102.6416015625,103.5205078125,104.6435546875,105.1318359375,105.1806640625,105.2783203125,105.1318359375,105.0830078125,104.3994140625,105.4248046875,103.7158203125,103.1787109375,103.2275390625,102.7880859375,101.4697265625,101.3232421875,99.6630859375,99.6630859375,99.8583984375,98.3447265625,97.5634765625,96.9287109375,96.3427734375,94.7802734375,96.6357421875,97.0751953125,97.9052734375,98.9794921875,100.4931640625,101.1279296875,102.7392578125,102.8369140625,103.0322265625,104.3017578125,104.6923828125,104.9365234375,105.7666015625,105.2294921875,105.0341796875,104.6923828125,104.1552734375,103.7646484375,103.1298828125,102.3486328125,102.0068359375,100.5908203125,99.6142578125,98.8330078125,98.4912109375,97.1240234375,95.3662109375,95.6103515625,93.3154296875,92.4365234375,91.1181640625,90.9716796875,90.0439453125,91.5087890625,91.3134765625,91.4599609375,91.9970703125,93.3154296875,93.9013671875,93.8525390625,94.4384765625,95.3662109375,95.5126953125,95.9033203125,95.7080078125,95.2685546875,95.4150390625,95.1220703125,94.6337890625,94.2919921875,94.3408203125,93.4619140625,92.1923828125,91.7529296875,91.4599609375,91.0205078125,89.7509765625,89.5556640625,88.9697265625,87.7001953125,86.7724609375,86.5771484375,85.9912109375,85.1123046875,84.5751953125,86.4794921875,86.4794921875,87.3583984375,87.9443359375,89.1162109375,89.7021484375,90.5322265625,91.5576171875,91.5576171875,92.6318359375,93.1201171875,93.0712890625,93.3642578125,94.0478515625,92.9736328125,92.8759765625,92.8759765625,92.1435546875,91.9482421875,91.1181640625,91.1669921875,90.2880859375,89.5556640625,88.2861328125,88.5302734375,87.7001953125,86.8701171875,86.7724609375,85.6982421875,84.8681640625,84.3798828125,83.3544921875,83.2568359375,84.5751953125,85.1123046875,84.0869140625,84.8681640625,86.1376953125,86.3818359375,86.9189453125,87.5048828125,87.6025390625,88.4814453125,89.4091796875,88.5302734375,88.8720703125,88.9697265625,88.4326171875,87.9931640625,87.7490234375,87.0166015625,86.6259765625,86.2353515625,84.7705078125,84.1845703125,83.6474609375,82.2314453125,82.0361328125,81.0107421875,79.8876953125,79.5947265625,78.9111328125,77.1044921875,76.0791015625,75.8837890625,75.5419921875,76.2255859375,76.7626953125,76.4208984375,77.3486328125,78.8623046875,78.5205078125,78.8134765625,79.3994140625,79.9365234375,80.9130859375,80.9130859375,80.3271484375,81.2060546875,80.7666015625,80.3271484375,80.3271484375,79.6923828125,79.3505859375,79.6435546875,79.3994140625,78.3740234375,78.4716796875,78.7646484375,77.8369140625,77.2021484375,77.4951171875,76.6162109375,76.1767578125,76.8115234375,76.7138671875,76.3232421875,77.5439453125,77.9833984375,78.8134765625,79.4482421875,80.8642578125,82.2802734375,83.5009765625,84.1357421875,84.7705078125,85.6982421875,86.4794921875,86.2353515625,86.8212890625,86.9677734375,87.1630859375,87.7001953125,86.7236328125,86.5771484375,86.4306640625,86.8212890625,85.9912109375,85.7470703125,85.3564453125,84.7705078125,84.8681640625,84.0869140625,83.8916015625,83.3544921875,83.4521484375,82.4267578125,82.4755859375,81.7919921875,81.8408203125,82.5732421875,84.2333984375,84.5751953125,85.2099609375,86.9677734375,87.3583984375,88.3349609375,88.9697265625,89.2138671875,90.6298828125,90.4833984375,90.5810546875,90.6298828125,91.4599609375,91.8994140625,90.6787109375,90.5810546875,90.8251953125,90.0439453125,89.5068359375,89.0673828125,88.5302734375,87.5537109375,87.6513671875,86.8212890625,85.7958984375,85.4541015625,83.5986328125,83.1591796875,82.7685546875,82.0849609375,83.0615234375,84.0869140625,84.1357421875,84.1357421875,85.6005859375,86.8701171875,87.5537109375,88.5302734375,89.0185546875,89.4091796875,89.7509765625,90.1904296875,90.4345703125,91.0205078125,91.3134765625,91.5087890625,91.7041015625,90.9716796875,90.4345703125,91.0205078125,91.1181640625,90.7275390625,91.1181640625,90.1904296875,90.0439453125,90.2880859375,89.4580078125,88.9208984375,89.2626953125,88.6767578125,88.1884765625,88.1396484375,88.5302734375,90.0439453125,90.4345703125,91.4111328125,93.2666015625,93.8525390625,95.1220703125,95.2685546875,95.8544921875,96.0986328125,96.6357421875,96.8798828125,97.2216796875,97.2705078125,97.2705078125,97.5146484375,97.0263671875,96.4404296875,96.2451171875,96.1474609375,95.1708984375,94.7314453125,94.6337890625,94.4873046875,93.0712890625,92.2900390625,92.4365234375,90.9228515625,90.5810546875,90.0927734375,89.5068359375,88.7744140625,89.7021484375,90.7275390625,90.7763671875,91.4111328125,92.8271484375,92.8271484375,93.8037109375,93.6572265625,94.2919921875,94.5361328125,95.3662109375,94.8779296875,94.4384765625,95.4150390625,93.7060546875,94.0478515625,93.2177734375,93.4130859375,92.8271484375,91.4111328125,90.3369140625,89.8486328125,89.0673828125,88.1396484375,88.1884765625,87.6025390625,85.8935546875,85.5517578125,84.4287109375,84.3798828125,83.5986328125,81.9873046875,82.9150390625,82.4267578125,83.1103515625,83.1103515625,84.0380859375,84.5751953125,85.1123046875,85.6494140625,86.4306640625,87.9931640625,88.5302734375,89.4580078125,88.4814453125,89.0673828125,89.7998046875,89.4580078125,88.8720703125,89.1162109375,88.5791015625,88.4326171875,88.2373046875,87.9443359375,87.9931640625,87.2119140625,87.0654296875,86.9677734375,86.2841796875,86.1376953125,84.8681640625,84.9658203125,84.5263671875,85.0146484375,85.3076171875,85.6982421875,86.1865234375,87.2607421875,87.3095703125,88.5791015625,89.0673828125,88.8720703125,89.4091796875,89.9462890625,90.6298828125,90.5810546875,90.6787109375,91.0205078125,90.8251953125,90.1904296875,90.3857421875,90.0439453125,88.9208984375,89.4091796875,89.3603515625,88.8232421875,87.5048828125,87.6513671875,87.0654296875,86.3330078125,85.1611328125,86.4306640625,84.2333984375,83.7451171875,83.3056640625,82.8662109375,83.8427734375,84.1357421875,83.9404296875,83.7939453125,84.4287109375,84.8193359375,85.4541015625,86.2841796875,85.6494140625,85.9423828125,86.4794921875,86.7236328125,86.1865234375,85.7958984375,85.6982421875,86.3330078125,86.0400390625,84.7216796875,83.8916015625,83.6474609375,83.3544921875,82.5244140625,82.3779296875,80.9130859375,80.7177734375,80.6201171875,79.3994140625,79.1552734375,78.6669921875,78.5205078125,77.4462890625,77.6416015625,77.4462890625,78.5693359375,79.8876953125,79.3994140625,79.8876953125,81.4013671875,81.5478515625,83.0615234375,83.1591796875,83.4521484375,84.8681640625,86.3330078125,86.0888671875,86.1376953125,86.9677734375,86.9189453125,86.9677734375,87.8955078125,87.8466796875,88.3349609375,87.3583984375,87.7490234375,87.6025390625,86.5283203125,86.1865234375,85.7958984375,86.1865234375,85.3564453125,84.8681640625,84.6728515625,83.6962890625,84.1845703125,84.9169921875,85.1611328125,85.2587890625,85.7470703125,86.5283203125,87.4560546875,87.9443359375,89.4091796875,89.3603515625,90.4345703125,90.1416015625,91.3623046875,91.5087890625,91.3623046875,90.9228515625,91.8994140625,92.2900390625,92.1435546875,91.6064453125,91.5576171875,91.3623046875,91.3623046875,90.7275390625,90.8251953125,89.1650390625,88.6767578125,87.7001953125,87.1630859375,86.7236328125,85.7958984375,84.7216796875,84.3310546875,85.3564453125,85.2099609375,85.1123046875,85.6494140625,86.0400390625,87.0654296875,87.7978515625,87.7978515625,89.0673828125,89.1650390625,90.3857421875,89.6044921875,89.6533203125,90.5322265625,90.6787109375,90.9228515625,90.7763671875,89.8486328125,90.2880859375,89.3603515625,88.6279296875,88.5791015625,88.8232421875,88.5302734375,87.7001953125,87.9931640625,87.6513671875,86.3818359375,86.1865234375,85.8935546875,85.5029296875,86.4306640625,87.9443359375,88.0908203125,89.4580078125,89.7021484375,91.0693359375,92.5830078125,93.1689453125,93.2177734375,94.5849609375,95.3173828125,96.4404296875,97.5146484375,96.3916015625,96.7333984375,97.4658203125,97.6611328125,97.0751953125,97.6123046875,97.4169921875,96.4892578125,96.3916015625,96.0009765625,96.0009765625,94.9755859375,94.6337890625,94.2431640625,94.1455078125,93.2177734375,92.3388671875,91.6552734375,92.3876953125,92.1923828125,93.0224609375,93.4619140625,94.2431640625,94.6337890625,95.5615234375,97.4658203125,97.8564453125,97.7587890625,98.1982421875,98.6376953125,100.4443359375,99.8095703125,100.0048828125,100.2978515625,99.8095703125,99.1748046875,99.6630859375,98.9306640625,98.1005859375,97.9052734375,97.0263671875,96.6357421875,95.2685546875,94.3896484375,94.0966796875,92.1923828125,91.3623046875,90.2880859375,89.7998046875,88.6767578125,87.8466796875,88.1884765625,89.2138671875,89.7509765625,89.7021484375,90.2392578125,91.2646484375,91.9482421875,92.5830078125,92.4853515625,93.3642578125,93.0712890625,94.0966796875,94.3408203125,93.5595703125,94.1455078125,93.6572265625,93.1201171875,92.2412109375,92.2900390625,91.7041015625,90.9228515625,89.8486328125,89.0673828125,88.5302734375,88.7744140625,87.6513671875,87.3095703125,86.7724609375,86.2841796875,86.0888671875,86.6748046875,86.1865234375,87.4072265625,88.9208984375,89.6044921875,90.4833984375,91.3134765625,91.9482421875,92.5341796875,93.4130859375,93.9501953125,94.7314453125,95.4150390625,95.6103515625,95.8056640625,95.3662109375,95.3173828125,96.1474609375,95.5615234375,94.6337890625,93.9990234375,93.5595703125,92.5341796875,92.0458984375,92.0947265625,91.0205078125,90.1416015625,89.5556640625,88.9697265625,88.4326171875,87.6025390625,87.3583984375,87.3095703125,87.8466796875,88.8232421875,88.9697265625,89.0185546875,90.4833984375,91.2646484375,91.9970703125,91.1669921875,92.3876953125,92.8759765625,92.8759765625,92.7783203125,93.3642578125,92.7783203125,92.9736328125,92.5341796875,91.8994140625,91.9970703125,91.9482421875,91.8017578125,90.3369140625,89.9951171875,89.5556640625,88.4814453125,87.2607421875,86.5771484375,85.7958984375,85.0634765625,83.9404296875,83.7939453125,83.1103515625,83.2080078125,83.4521484375,84.2333984375,83.9404296875,84.1845703125,84.8681640625,85.8447265625,85.9423828125,85.5029296875,85.9912109375,85.1123046875,86.4306640625,86.0400390625,84.6240234375,85.0146484375,85.3564453125,84.2822265625,83.9404296875,83.3544921875,82.6708984375,82.8662109375,82.0361328125,81.1572265625,80.2783203125,79.4970703125,78.8623046875,79.0087890625,78.2763671875,77.2998046875,76.8115234375,76.1279296875,77.2021484375,78.0322265625,78.1787109375,78.7158203125,79.6923828125,80.5224609375,81.3037109375,81.7431640625,82.5244140625,83.7451171875,83.7451171875,83.6962890625,84.6240234375,85.0634765625,84.6240234375,84.6240234375,84.3310546875,85.5029296875,84.4775390625,84.3798828125,84.2822265625,83.8916015625,83.2080078125,82.7685546875,81.9873046875,81.4501953125,80.9130859375,80.2783203125,79.9365234375,79.1552734375,79.3017578125,80.1806640625,80.6201171875,81.2060546875,81.4501953125,82.7197265625,83.0126953125,84.7216796875,84.8681640625,85.2587890625,86.5771484375,86.5283203125,86.7724609375,87.1142578125,87.8955078125,87.4560546875,87.3095703125,87.4072265625,86.3818359375,86.7236328125,86.7236328125,86.3818359375,85.5029296875,85.1611328125,84.7216796875,83.6962890625,84.0380859375,83.4033203125,82.0361328125,81.6455078125,80.8642578125,79.8388671875,79.8876953125,80.0830078125,80.3271484375,80.6201171875,81.8408203125,82.8173828125,83.6962890625,84.2333984375,85.0634765625,85.4052734375,85.8935546875,86.5771484375,87.0654296875,86.7236328125,87.3583984375,86.8701171875,86.9677734375,87.1630859375,86.5771484375,86.1376953125,85.6982421875,86.2353515625,84.9169921875,85.6005859375,84.6240234375,83.1591796875,83.5986328125,83.8916015625,82.6220703125,82.3779296875,82.1826171875,81.4013671875,82.5732421875,82.8173828125,84.0380859375,84.9169921875,86.7724609375,86.9677734375,89.0185546875,89.7021484375,90.1904296875,90.3857421875,91.7529296875,92.9736328125,93.0224609375,93.9990234375,93.6083984375,94.6826171875,93.9990234375,93.9501953125,94.1455078125,94.7314453125,93.5107421875,92.8759765625,92.9736328125,91.5576171875,91.9482421875,90.9716796875,90.6787109375,90.1416015625,89.7998046875,89.3115234375,88.0908203125,87.7978515625,88.3349609375,89.5556640625,90.2880859375,91.2646484375,91.1669921875,93.1689453125,94.3896484375,95.2685546875,95.7568359375,96.9775390625,96.8798828125,97.4658203125,97.8076171875,97.9052734375,98.2470703125,97.9541015625,97.2216796875,97.5634765625,97.8076171875,96.6845703125,96.2451171875,95.7080078125,94.9755859375,93.7548828125,93.7548828125,92.7783203125,91.5087890625,90.9716796875,89.7998046875,89.4091796875,87.8955078125,86.7236328125,87.1142578125,87.7001953125,88.2861328125,89.3603515625,89.9951171875,90.6298828125,90.5810546875,91.4599609375,92.6318359375,93.2177734375,93.5595703125,93.3642578125,94.4873046875,93.4619140625,94.4384765625,94.0478515625,93.4619140625,92.8271484375,92.7294921875,92.3876953125,91.7529296875,91.5576171875,90.4833984375,89.9462890625,89.2138671875,88.7255859375,87.2119140625,87.4560546875,86.1376953125,85.5517578125,84.4287109375,84.6728515625,84.1845703125,85.0634765625,86.1865234375,86.7236328125,86.9677734375,88.7255859375,89.4091796875,90.0927734375,90.4345703125,92.5341796875,92.1923828125,91.8017578125,92.7783203125,92.2900390625,93.1689453125,92.5341796875,92.5341796875,92.7294921875,91.7529296875,91.2646484375,91.1669921875,90.4345703125,90.4345703125,88.6767578125,87.9443359375,87.0654296875,86.6748046875,86.0888671875,85.6005859375,84.0380859375,83.3056640625,83.5498046875,83.4033203125,82.7197265625,83.9892578125,84.5751953125,84.5263671875,86.1865234375,86.5771484375,87.4072265625,88.3349609375,88.1396484375,87.9931640625,89.2626953125,88.7255859375,89.3603515625,88.9208984375,88.1396484375,88.2861328125,87.8466796875,87.4072265625,86.9677734375,86.4306640625,85.6982421875,84.8681640625,83.6474609375,83.2080078125,83.2080078125,81.0107421875,80.0830078125,79.1552734375,78.5693359375,77.3486328125,76.7626953125,76.7138671875,76.2744140625,77.4462890625,76.8603515625,77.6904296875,77.6904296875,77.9833984375,78.7158203125,78.6669921875,79.3017578125,80.2294921875,80.2783203125,80.7177734375,80.0830078125,80.3271484375,80.8642578125,80.5224609375,79.3994140625,79.4482421875,78.9599609375,78.4716796875,78.7158203125,77.3486328125,76.7138671875,77.5439453125,76.1279296875,74.8095703125,74.4677734375,74.3701171875,73.2958984375,73.1494140625,72.1240234375,71.8798828125,72.2216796875,72.8564453125,74.9560546875,74.7607421875,75.4443359375,76.6162109375,78.2763671875,77.7880859375,78.4228515625,78.7158203125,80.0830078125,79.9853515625,80.7177734375,80.4248046875,80.7666015625,80.7666015625,80.1806640625,80.5712890625,79.5458984375,80.2294921875,79.5458984375,78.4716796875,78.9111328125,78.2763671875,77.4951171875,76.5673828125,76.6650390625,75.9814453125,75.2001953125,75.1025390625,74.2236328125,73.9794921875,73.4423828125,74.3701171875,75.0537109375,76.7626953125,76.0302734375,77.0068359375,78.1298828125,79.0087890625,80.1318359375,80.3271484375,80.9619140625,82.4267578125,81.9873046875,82.8173828125,82.8173828125,82.9150390625,82.8662109375,82.0361328125,82.4267578125,82.0849609375,81.7431640625,81.6455078125,80.3271484375,80.1318359375,79.6923828125,78.9599609375,78.4228515625,77.9345703125,77.5439453125,76.1767578125,75.9326171875,75.2978515625,74.3701171875,73.7841796875,74.9072265625,75.0048828125,76.1279296875,76.8115234375,77.2998046875,78.3251953125,79.7412109375,80.4736328125,81.1572265625,81.9873046875,83.0615234375,83.5986328125,83.9892578125,84.3798828125,84.3798828125,84.1357421875,83.2568359375,84.4287109375,83.8427734375,83.9404296875,83.6474609375,83.2080078125,82.9638671875,83.0615234375,82.6708984375,82.3291015625,82.5732421875,80.9619140625,81.9873046875,80.7666015625,80.5712890625,80.9130859375,81.7919921875,82.6220703125,83.6474609375,84.5263671875,86.0888671875,86.8212890625,88.1884765625,89.0185546875,89.3603515625,90.4345703125,91.0693359375,92.0458984375,92.4365234375,92.5830078125,92.3876953125,93.0712890625,92.3388671875,92.8271484375,92.2412109375,92.3876953125,92.0947265625,90.9228515625,90.2392578125,89.4580078125,89.8974609375,88.5791015625,88.7744140625,88.1396484375,86.6259765625,86.8212890625,86.1865234375,86.0400390625,86.2841796875,87.4072265625,87.7490234375,88.6279296875,89.7021484375,90.2392578125,92.5830078125,93.8037109375,94.0966796875,94.6337890625,95.6103515625,95.8544921875,96.0498046875,96.0009765625,95.2197265625,95.9033203125,96.0986328125,94.6337890625,94.8779296875,93.8525390625,93.6083984375,92.5341796875,91.4599609375,90.5810546875,89.8974609375,89.0673828125,88.4326171875,87.3583984375,86.7724609375,85.2587890625,84.9169921875,83.3056640625,83.8916015625,83.4521484375,84.6240234375,85.6494140625,85.6005859375,86.0888671875,87.7978515625,88.3837890625,88.6767578125,89.4091796875,90.5810546875,90.7275390625,91.1669921875,90.8740234375,90.6298828125,91.1181640625,90.0927734375,88.9697265625,89.5068359375,88.5791015625,87.6513671875,87.0166015625,86.5771484375,85.7470703125,85.6982421875,84.5751953125,84.3798828125,83.1103515625,83.2080078125,81.9384765625,81.4990234375,81.4990234375,81.7431640625,82.5732421875,83.5986328125,83.6962890625,84.8681640625,85.8935546875,86.8701171875,87.0166015625,88.1396484375,88.2861328125,88.9697265625,88.7744140625,89.5556640625,89.9951171875,89.7509765625,89.0185546875,87.8466796875,87.9443359375,87.3583984375,86.9189453125,86.1865234375,86.0400390625,85.9912109375,84.4287109375,83.7451171875,82.8173828125,81.9384765625,81.8408203125,80.5224609375,80.0341796875,79.5947265625,79.0087890625,79.3994140625,80.6689453125,80.7177734375,80.3759765625,81.4013671875,81.4990234375,82.5732421875,83.2568359375,83.4521484375,83.6962890625,84.0380859375,84.4287109375,84.8193359375,85.1611328125,83.7939453125,83.7939453125,83.6962890625,82.0849609375,81.6943359375,81.5966796875,80.3759765625,80.0341796875,78.6669921875,77.7880859375,76.9091796875,76.8115234375,76.5185546875,74.5166015625,73.7841796875,73.0029296875,72.6123046875,72.9052734375,72.7099609375,72.8076171875,73.0029296875,73.3935546875,74.9072265625,75.7861328125,75.9326171875,76.0302734375,76.7626953125,77.0556640625,77.7880859375,77.8369140625,77.9345703125,77.8857421875,78.1787109375,78.1298828125,77.9345703125,78.1787109375,77.4462890625,77.7880859375,76.4208984375,76.8603515625,75.9814453125,75.6396484375,75.7861328125,75.2001953125,74.7119140625,74.5654296875,73.9306640625,74.0283203125,73.8330078125,73.8330078125,74.4189453125,76.0791015625,76.9091796875,78.1298828125,79.1552734375,80.5712890625,80.5712890625,80.4736328125,81.6455078125,82.7197265625,83.1591796875,83.3544921875,83.1591796875,82.8173828125,83.2080078125,82.7685546875,82.5732421875,82.7197265625,82.2314453125,81.4501953125,81.5966796875,81.8896484375,81.5966796875,80.8642578125,79.9853515625,80.3271484375,80.3759765625,78.5693359375,78.6669921875,78.1787109375,77.4951171875,78.1298828125,78.2763671875,79.3505859375,80.2294921875,81.2060546875,81.4013671875,83.6962890625,83.6474609375,84.2333984375,85.9912109375,86.3330078125,86.1865234375,86.6748046875,87.0166015625,86.1865234375,86.4306640625,86.6259765625,86.5771484375,86.2841796875,86.1865234375,85.7470703125,84.9658203125,84.3798828125,83.7939453125,83.3544921875,82.5732421875,82.7685546875,82.1826171875,80.7177734375,80.5712890625,80.2783203125,79.5458984375,81.2548828125,82.6220703125,83.0615234375,84.3798828125,85.4541015625,86.1865234375,87.7490234375,89.4091796875,89.7998046875,90.8740234375,91.5087890625,91.9482421875,92.1923828125,92.1435546875,93.0712890625,93.2177734375,93.8037109375,92.7294921875,92.8759765625,92.9248046875,91.8994140625,92.0947265625,92.3876953125,91.6064453125,91.0693359375,90.9228515625,89.9951171875,89.3603515625,88.3837890625,88.4326171875,88.3837890625,89.1650390625,89.8974609375,91.7529296875,91.9970703125,93.3642578125,95.0732421875,96.0498046875,96.4404296875,97.0751953125,98.0517578125,98.8818359375,99.6630859375,98.9794921875,98.9794921875,98.7841796875,99.1259765625,98.7353515625,98.8818359375,97.9541015625,97.4658203125,96.2939453125,96.0009765625,95.3173828125,95.1708984375,93.7060546875,92.9248046875,92.0947265625,91.4599609375,90.3369140625,89.6044921875,88.2861328125,88.7255859375,89.0673828125,89.8486328125,89.5068359375,90.6787109375,91.0205078125,92.8271484375,93.6572265625,93.6572265625,93.8525390625,94.8779296875,94.9755859375,95.2197265625,94.6337890625,95.2197265625,94.4384765625,93.8525390625,93.1201171875,92.9736328125,92.1923828125,91.5576171875,90.5322265625,89.9951171875,89.0673828125,88.4326171875,88.0419921875,87.6025390625,86.3330078125,84.9169921875,84.4287109375,83.7939453125,83.5009765625,83.8427734375,84.5751953125,84.8193359375,86.2353515625,87.1142578125,88.2373046875,89.2138671875,90.6787109375,90.2392578125,91.3623046875,91.5087890625,91.7529296875,93.0224609375,91.8505859375,91.8994140625,91.7041015625,92.4853515625,91.8017578125,90.2880859375,90.6298828125,89.7509765625,89.2138671875,88.5302734375,88.5791015625,87.5537109375,86.6259765625,86.0888671875,84.8681640625,84.8193359375,84.2333984375,83.0126953125,82.4267578125,83.7451171875,84.3798828125,84.8681640625,85.5517578125,85.9912109375,86.3330078125,87.8955078125,87.7490234375,88.3837890625,88.9208984375,90.0439453125,90.0927734375,89.4091796875,90.0927734375,89.3115234375,89.7021484375,88.9208984375,88.6767578125,88.2373046875,87.6513671875,87.5048828125,86.0888671875,85.6494140625,84.4287109375,84.2333984375,83.1591796875,82.1337890625,81.1572265625,80.3759765625,80.2294921875,78.7646484375,79.1552734375,79.6923828125,79.5947265625,80.0830078125,79.7900390625,81.7431640625,82.0849609375,83.0126953125,83.2568359375,83.3056640625,83.7451171875,83.5986328125,83.8916015625,83.0615234375,84.1357421875,82.8173828125,82.4755859375,83.1103515625,82.1826171875,82.2802734375,81.5478515625,80.2294921875,79.3994140625,80.3759765625,79.3505859375,78.0322265625,77.5927734375,76.9091796875,75.4443359375,75.9326171875,75.4931640625,75.3955078125,76.5673828125,77.3974609375,77.8369140625,78.3251953125,78.6181640625,80.1318359375,80.8642578125,81.9873046875,81.9873046875,83.6474609375,83.3544921875,84.1845703125,83.8916015625,84.3798828125,85.0146484375,85.1123046875,84.1845703125,84.6240234375,84.2822265625,83.6474609375,83.5986328125,83.2080078125,82.6708984375,82.7197265625,82.3779296875,81.2060546875,80.5712890625,80.3759765625,78.8623046875,79.1064453125,78.6181640625,79.7900390625,80.4736328125,81.0595703125,81.6455078125,84.0869140625,84.0869140625,85.3564453125,85.8447265625,87.0654296875,87.8466796875,88.0908203125,88.8720703125,89.3603515625,88.6279296875,89.1162109375,88.7744140625,88.5791015625,88.3837890625,87.7978515625,87.2607421875,87.0654296875,86.4794921875,85.9423828125,84.7216796875,84.1845703125,83.3544921875,82.0361328125,81.4501953125,81.6455078125,79.6923828125,79.7900390625,79.3994140625,80.3271484375,80.5712890625,81.8896484375,82.1826171875,83.6474609375,84.5751953125,85.6494140625,86.3330078125,86.3818359375,87.5048828125,87.8466796875,87.6513671875,87.7001953125,88.7744140625,88.9208984375,88.4814453125,87.9443359375,88.3349609375,87.3095703125,86.5771484375,86.5771484375,85.7958984375,86.1376953125,84.6728515625,84.5751953125,84.5263671875,83.5986328125,83.0615234375,82.3779296875,81.9873046875,82.6708984375,84.1845703125,85.2587890625,85.7470703125,86.9677734375,88.4326171875,90.1416015625,91.0205078125,91.9482421875,92.1923828125,92.9248046875,93.9013671875,94.8291015625,94.6337890625,93.9501953125,94.5361328125,95.0732421875,94.1455078125,94.0478515625,93.6572265625,94.0966796875,92.4853515625,91.9970703125,91.6552734375,90.7275390625,90.2392578125,89.5556640625,88.5791015625,88.0908203125,87.3095703125,87.0654296875,88.2861328125,88.1396484375,89.6533203125,89.9951171875,91.1181640625,91.4599609375,93.3154296875,92.9736328125,93.7060546875,95.1220703125,94.8291015625,95.4638671875,96.0986328125,95.6103515625,95.4638671875,95.1220703125,95.2685546875,94.4873046875,93.7548828125,92.2900390625,91.6064453125,91.1669921875,90.6298828125,89.9462890625,89.2138671875,88.3349609375,86.6748046875,85.8935546875,85.2587890625,84.5751953125,82.2314453125,83.4521484375,84.2333984375,84.3798828125,84.9658203125,84.9658203125,86.2841796875,86.9189453125,87.7001953125,87.7001953125,88.1396484375,89.0185546875,89.0673828125,88.4814453125,88.3349609375,88.8232421875,88.0908203125,87.7978515625,87.7490234375,86.1376953125,86.1376953125,85.2099609375,83.7939453125,84.8193359375,83.0615234375,82.7197265625,82.4755859375,81.9384765625,80.2294921875,80.9619140625,79.9365234375,79.5458984375,80.4736328125,81.6943359375,82.6708984375,83.0126953125,83.8427734375,84.9658203125,86.4794921875,86.4794921875,88.0908203125,88.6767578125,89.1650390625,89.3115234375,89.7509765625,89.3603515625,89.9951171875,89.9462890625,89.0185546875,88.2861328125,87.9443359375,87.7001953125,86.4794921875,86.3330078125,85.5029296875,85.3076171875,83.5009765625,83.5009765625,82.6708984375,82.1826171875,80.6689453125,81.0107421875,81.5478515625,81.7431640625,82.2314453125,82.0849609375,82.9638671875,84.0380859375,85.0146484375,85.8935546875,85.5029296875,86.2353515625,86.8212890625,87.2607421875,87.1630859375,87.1630859375,87.1630859375,87.3583984375,86.6748046875,86.9189453125,85.5029296875,84.3798828125,84.5751953125,83.0126953125,82.4267578125,81.3037109375,80.9130859375,79.3017578125,79.1064453125,76.7626953125,76.4697265625,75.6884765625,75.7373046875,75.6396484375,76.4208984375,76.9580078125,77.0068359375,77.7880859375,78.2275390625,78.7158203125,78.6669921875,78.9111328125,79.7412109375,80.0830078125,80.0830078125,79.9853515625,80.2294921875,79.4970703125,79.6435546875,79.1064453125,78.0810546875,78.6669921875,77.2021484375,76.5673828125,76.2744140625,75.9814453125,76.1279296875,75.1025390625,74.0771484375,73.5400390625,73.1982421875,72.4169921875,71.6845703125,71.8310546875,72.9541015625,73.8330078125,74.4189453125,75.3955078125,76.9580078125,77.3974609375,78.2763671875,78.7646484375,79.5947265625,79.8876953125,81.6455078125,81.7919921875,81.9873046875,82.3291015625,81.9873046875,82.7685546875,82.2314453125,81.8408203125,81.8896484375,81.6455078125,80.7666015625,80.2294921875
