PPG_subj_05,25,M,N,Non-diabetic,95,34.9135,Forehead,0.185546875,0.185546875,0.185546875,0.185546875,0.185546875,0.185546875,148.5595703125,-13.1103515625,-13.2568359375,-13.7939453125,-13.5009765625,-13.8916015625,-13.2080078125,-14.1357421875,-14.6728515625,-16.0400390625,-17.1142578125,-17.8466796875,-16.6748046875,-14.8193359375,-14.4775390625,-14.2333984375,-13.8427734375,-13.7451171875,-14.1357421875,-13.6962890625,-13.1103515625,-13.3056640625,-12.5732421875,-13.3544921875,-14.0869140625,-14.7216796875,-15.4052734375,-16.8701171875,-17.9931640625,-18.8720703125,-19.4580078125,-19.1162109375,-19.2138671875,-16.6748046875,-13.7939453125,-12.3291015625,-12.0361328125,-11.2548828125,-11.3037109375,-11.9384765625,-12.7685546875,-13.3056640625,-13.6474609375,-13.3056640625,-12.8662109375,-12.8662109375,-13.5009765625,-13.8916015625,-13.5498046875,-14.1845703125,-14.2822265625,-15.2099609375,-16.0888671875,-16.2353515625,-15.6005859375,-13.3544921875,-11.6943359375,-10.9619140625,-10.8154296875,-10.6689453125,-10.7666015625,-10.7177734375,-8.9599609375,-5.4931640625,-3.5888671875,-1.7333984375,-1.5869140625,-1.4404296875,-1.8310546875,-0.0244140625,2.0751953125,2.6123046875,4.2724609375,4.9072265625,5.3955078125,6.2744140625,7.2021484375,6.9580078125,8.5205078125,7.8857421875,6.6650390625,6.3232421875,5.1025390625,3.5888671875,1.9775390625,0.0244140625,-1.9287109375,-2.3193359375,-3.1005859375,-3.2958984375,-4.3701171875,-5.0537109375,-6.0302734375,-6.9580078125,-8.4228515625,-9.5947265625,-8.1298828125,-6.5185546875,-4.1748046875,-4.3701171875,-4.8095703125,-6.2255859375,-7.6904296875,-8.9599609375,-9.1552734375,-8.5205078125,-7.5439453125,-5.9326171875,-4.6630859375,-3.1982421875,-1.8798828125,0.3662109375,1.8310546875,4.0283203125,5.7373046875,7.6904296875,10.3271484375,15.2587890625,19.8486328125,22.3388671875,25.4638671875,26.4404296875,26.7333984375,26.0986328125,24.3408203125,20.2392578125,17.2607421875,15.3564453125,13.3056640625,11.7919921875,10.9619140625,10.7666015625,11.3037109375,10.7177734375,10.0341796875,9.0576171875,8.8623046875,9.6435546875,12.1337890625,14.6728515625,16.3818359375,17.5537109375,16.9189453125,17.2607421875,15.7958984375,15.8935546875,13.7939453125,13.9892578125,14.2333984375,15.0634765625,14.9169921875,14.6240234375,13.7451171875,12.5732421875,10.6689453125,10.5712890625,10.3271484375,10.6201171875,10.8642578125,13.0126953125,14.6240234375,14.7216796875,15.1611328125,15.2587890625,15.2587890625,14.8681640625,15.1123046875,15.4541015625,14.8681640625,14.0869140625,13.4521484375,13.2080078125,12.6220703125,12.0361328125,12.0361328125,11.3525390625,10.5712890625,10.3759765625,9.3017578125,10.5224609375,12.3291015625,13.9892578125,14.5751953125,15.2099609375,14.4287109375,13.6474609375,12.5244140625,12.2802734375,12.5732421875,12.8173828125,13.5498046875,12.9638671875,12.5732421875,12.0361328125,11.7431640625,11.9873046875,11.6943359375,11.8408203125,11.4990234375,10.5712890625,13.1103515625,14.7705078125,16.4306640625,16.9677734375,17.1630859375,17.2607421875,16.0888671875,16.3330078125,16.1376953125,16.6748046875,15.8447265625,15.7958984375,15.6982421875,15.5517578125,14.7216796875,14.8681640625,13.8916015625,13.2080078125,12.6708984375,12.4267578125,13.3056640625,15.8447265625,17.4560546875,17.8466796875,17.9931640625,17.9931640625,17.3583984375,17.4072265625,17.0166015625,17.1142578125,17.1142578125,17.4560546875,16.9189453125,16.7236328125,16.2353515625,16.6259765625,15.6494140625,15.6494140625,15.1123046875,14.8193359375,15.2587890625,18.3837890625,20.7275390625,22.2900390625,22.5341796875,22.4365234375,22.1435546875,22.0458984375,21.7041015625,21.7529296875,22.1435546875,22.2900390625,21.9482421875,21.6552734375,20.7763671875,20.2392578125,19.8486328125,19.8974609375,19.0185546875,18.8720703125,17.6513671875,19.6533203125,22.3876953125,23.8037109375,25.6103515625,25.5615234375,25.9521484375,26.5380859375,25.9033203125,25.9521484375,25.8056640625,26.6357421875,26.0498046875,26.0986328125,25.7080078125,25.5615234375,25.1708984375,24.8779296875,25.3173828125,24.4384765625,23.6083984375,23.6572265625,25.2685546875,26.7822265625,29.5166015625,30.2001953125,29.7607421875,30.4931640625,30.3466796875,29.0771484375,28.1494140625,28.4912109375,27.7099609375,27.8076171875,27.5146484375,26.6357421875,25.6591796875,25.4638671875,25.0244140625,24.5361328125,23.9990234375,23.0224609375,23.4619140625,24.5849609375,26.6845703125,27.9541015625,27.8564453125,28.3447265625,28.2470703125,27.7099609375,26.7333984375,26.7822265625,26.3916015625,26.8310546875,26.7822265625,25.6103515625,25.4150390625,25.1220703125,24.9267578125,24.0478515625,23.3642578125,22.7783203125,22.4365234375,21.8994140625,23.9501953125,25.1708984375,26.7822265625,27.2216796875,27.2705078125,27.4658203125,26.5380859375,25.6591796875,25.6591796875,25.7568359375,25.1708984375,25.3173828125,24.9755859375,24.0966796875,23.5595703125,22.4365234375,21.8505859375,21.4599609375,20.9716796875,20.2880859375,20.8740234375,23.4130859375,24.6826171875,25.3173828125,25.8056640625,25.7568359375,24.4873046875,24.8779296875,24.0966796875,24.2919921875,24.7802734375,24.6826171875,24.0478515625,24.2919921875,22.5830078125,22.5830078125,21.8994140625,21.7529296875,21.1181640625,20.9228515625,20.3857421875,21.3134765625,23.7060546875,25.5615234375,26.4404296875,26.7822265625,26.5380859375,27.1728515625,26.1474609375,26.2451171875,25.4638671875,25.3662109375,25.1220703125,25.1708984375,24.6337890625,24.1943359375,23.8037109375,23.5107421875,22.8271484375,21.9970703125,21.6064453125,21.3623046875,21.1181640625,22.1435546875,24.9267578125,26.2451171875,26.7333984375,27.0751953125,27.1240234375,26.9287109375,26.1474609375,26.0498046875,25.2685546875,25.4638671875,25.2197265625,24.9755859375,24.4873046875,24.0966796875,23.3154296875,23.6572265625,22.8271484375,22.6806640625,21.8994140625,21.3134765625,20.9716796875,22.0947265625,24.3408203125,26.0009765625,26.8798828125,27.0263671875,26.9775390625,26.8310546875,26.7333984375,25.9521484375,25.7080078125,25.4150390625,25.5126953125,25.1220703125,24.8291015625,23.7060546875,23.5107421875,22.8759765625,22.5830078125,21.9482421875,21.5576171875,21.3134765625,20.3369140625,22.2900390625,24.4384765625,25.4638671875,25.6103515625,26.1474609375,25.3173828125,25.4150390625,24.0966796875,23.7060546875,23.4619140625,23.0224609375,22.6318359375,21.4599609375,20.8740234375,20.6787109375,19.8486328125,19.9951171875,18.7744140625,18.5302734375,18.6279296875,17.1630859375,17.2607421875,19.2626953125,21.2158203125,22.9248046875,22.5341796875,22.9248046875,22.9736328125,21.8994140625,21.6064453125,21.1181640625,21.4599609375,21.4111328125,21.0693359375,20.2392578125,19.3115234375,19.0673828125,18.7744140625,18.3837890625,17.8955078125,16.8701171875,15.8935546875,16.0400390625,15.8447265625,19.0185546875,20.8740234375,21.7529296875,21.8994140625,22.1435546875,22.3876953125,22.0947265625,21.2646484375,20.8740234375,21.4599609375,21.3623046875,20.6298828125,19.7998046875,19.4091796875,19.0185546875,18.7255859375,17.9443359375,18.0908203125,17.3095703125,15.3076171875,15.1611328125,16.1376953125,18.3349609375,20.6787109375,22.4365234375,22.3876953125,23.1689453125,22.4853515625,21.9482421875,21.6552734375,21.9482421875,21.6064453125,21.6064453125,20.9228515625,20.5810546875,20.7275390625,19.6044921875,18.8720703125,18.4814453125,17.8955078125,16.8701171875,16.6748046875,15.5029296875,17.0166015625,19.5068359375,20.2880859375,21.4111328125,21.1669921875,20.7275390625,19.9951171875,18.7255859375,18.9208984375,19.1162109375,18.5302734375,18.6279296875,17.9443359375,17.7978515625,16.8212890625,16.5771484375,16.0888671875,15.4541015625,15.4541015625,14.8193359375,13.8427734375,15.8935546875,17.7978515625,18.4326171875,18.9208984375,19.3115234375,19.0185546875,17.7978515625,17.3095703125,17.1630859375,17.1630859375,16.7236328125,16.8212890625,15.6982421875,15.4052734375,15.0634765625,14.0380859375,13.5498046875,13.2080078125,12.7685546875,12.2314453125,12.7685546875,13.9404296875,16.2841796875,16.6259765625,16.9677734375,17.0654296875,16.4794921875,15.4052734375,14.6240234375,15.1611328125,14.8193359375,14.8193359375,14.3310546875,13.2568359375,12.8173828125,12.4755859375,11.3525390625,11.1083984375,10.5224609375,10.2783203125,10.1318359375,12.2802734375,14.2333984375,15.7958984375,15.6982421875,15.6494140625,15.6494140625,15.2587890625,14.7216796875,14.6240234375,14.3310546875,14.6728515625,13.5009765625,12.8173828125,13.1591796875,12.5244140625,11.8408203125,11.7919921875,11.0107421875,10.3759765625,9.5458984375,10.2294921875,12.8173828125,14.4775390625,15.1611328125,16.2841796875,16.0400390625,16.2841796875,16.0400390625,15.5029296875,15.6494140625,15.8935546875,15.8935546875,15.6982421875,15.0146484375,14.6240234375,14.1845703125,13.7939453125,12.6220703125,12.3291015625,12.3291015625,11.5478515625,11.6943359375,13.9404296875,16.2353515625,17.7978515625,18.9697265625,19.4580078125,19.2626953125,19.0673828125,18.3349609375,18.4814453125,19.1162109375,18.8232421875,18.7255859375,17.7978515625,17.6025390625,17.6025390625,16.6259765625,16.9677734375,16.2841796875,15.6982421875,15.4052734375,15.5029296875,17.8955078125,19.6533203125,20.9228515625,20.6787109375,20.1904296875,20.9228515625,19.2626953125,19.0185546875,18.8232421875,18.9697265625,18.5302734375,18.7255859375,17.7978515625,17.0654296875,17.0654296875,16.6748046875,16.2353515625,15.6982421875,15.2099609375,14.9169921875,15.3564453125,17.5537109375,18.7744140625,18.9697265625,20.0927734375,18.9208984375,18.4326171875,17.3583984375,17.1142578125,17.3583984375,16.5283203125,17.2607421875,16.9189453125,16.0400390625,14.7705078125,14.0869140625,13.5498046875,12.7685546875,11.8408203125,11.6455078125,11.4013671875,12.8173828125,14.6240234375,15.7470703125,16.1865234375,15.5029296875,15.3076171875,14.2333984375,13.5986328125,13.1103515625,13.2568359375,13.7451171875,13.5009765625,12.4755859375,12.4267578125,11.8896484375,11.1083984375,10.5224609375,10.0830078125,9.3505859375,8.7158203125,10.7177734375,13.0126953125,13.5009765625,14.5263671875,14.3798828125,13.8427734375,12.3291015625,12.3291015625,12.0361328125,11.4501953125,11.4013671875,10.7666015625,10.0830078125,9.9853515625,8.9599609375,9.4482421875,8.3251953125,7.9833984375,7.4462890625,7.2021484375,9.1552734375,11.6455078125,12.6220703125,13.0126953125,13.2568359375,13.2080078125,12.8662109375,12.0361328125,12.4755859375,12.7197265625,12.6220703125,12.6708984375,12.1826171875,11.7431640625,11.2060546875,10.8642578125,9.8876953125,9.7412109375,9.9853515625,9.3994140625,11.0595703125,13.6962890625,15.2587890625,15.6494140625,15.7958984375,15.5029296875,15.1123046875,14.4287109375,14.1845703125,14.3798828125,14.5263671875,14.5263671875,14.1357421875,14.1845703125,13.2568359375,12.9638671875,12.7685546875,11.7431640625,10.8642578125,10.2783203125,10.2783203125,13.4521484375,16.0400390625,16.8701171875,17.5048828125,17.5537109375,17.6513671875,16.4306640625,16.2353515625,15.8447265625,15.9912109375,15.4541015625,15.1123046875,14.5263671875,14.2333984375,13.5498046875,13.0615234375,12.7685546875,12.0361328125,10.6689453125,10.1806640625,9.9853515625,11.6943359375,13.9404296875,15.5517578125,15.5029296875,15.1123046875,14.7705078125,13.2080078125,12.8662109375,13.3544921875,13.5498046875,13.3544921875,12.3779296875,12.7197265625,11.8896484375,11.4501953125,10.5224609375,9.4970703125,9.0087890625,7.8369140625,7.8857421875,7.8857421875,10.5712890625,12.2314453125,12.6708984375,12.1826171875,12.3779296875,11.5966796875,10.3271484375,10.6201171875,10.9130859375,10.1806640625,9.6923828125,8.9599609375,8.4716796875,7.9345703125,7.1533203125,6.4697265625,5.4931640625,4.2236328125,4.1259765625,4.3212890625,6.3720703125,8.1787109375,9.1064453125,9.4482421875,8.8623046875,8.2763671875,7.7392578125,6.8115234375,6.5185546875,7.2021484375,6.8115234375,6.0302734375,5.5908203125,4.4189453125,3.9306640625,2.9541015625,2.1240234375,1.4892578125,1.0009765625,0.4638671875,1.8310546875,4.1748046875,5.5419921875,6.2744140625,6.1767578125,6.4697265625,5.9814453125,3.8330078125,4.0771484375,4.3212890625,4.3701171875,4.1259765625,3.5888671875,2.9052734375,2.2216796875,1.4892578125,0.9033203125,0.5615234375,-0.3173828125,-0.5126953125,0.1708984375,1.4892578125,4.0771484375,5.5419921875,6.0791015625,5.6884765625,5.8349609375,4.5654296875,4.7607421875,4.0771484375,4.1259765625,4.3212890625,4.0771484375,3.8330078125,3.0029296875,2.7099609375,1.9775390625,1.3916015625,0.4638671875,-0.3662109375,0.0732421875,-0.4638671875,1.9287109375,3.3447265625,4.8583984375,5.0048828125,5.5908203125,5.0048828125,3.9306640625,3.6376953125,3.6865234375,4.2236328125,4.0771484375,3.3447265625,4.3701171875,3.3935546875,3.0517578125,2.9052734375,2.7587890625,1.2939453125,1.4404296875,0.7080078125,1.4404296875,4.3212890625,5.1025390625,5.6884765625,5.7861328125,5.5419921875,4.9560546875,4.3212890625,4.4189453125,4.6142578125,4.6142578125,4.0771484375,3.8330078125,2.6123046875,2.6123046875,2.6611328125,2.6123046875,1.9287109375,0.3173828125,-0.3173828125,0.6591796875,2.6123046875,4.6630859375,5.3466796875,5.9326171875,5.4931640625,5.0048828125,4.0283203125,4.1748046875,4.2724609375,4.1748046875,4.4677734375,3.6376953125,2.9541015625,2.6123046875,1.7822265625,1.8310546875,0.6103515625,0.1220703125,0.3662109375,0.8544921875,4.1259765625,5.2978515625,6.7138671875,5.7861328125,6.6162109375,5.7373046875,4.5166015625,4.3701171875,4.5654296875,5.1025390625,5.5908203125,5.1513671875,4.3212890625,4.5654296875,3.7353515625,3.2470703125,2.7587890625,1.6845703125,1.3427734375,1.6845703125,4.5166015625,6.6650390625,8.3740234375,8.1787109375,8.2763671875,8.3251953125,7.1533203125,6.5673828125,6.5673828125,6.6650390625,6.4697265625,6.3232421875,5.5908203125,5.7861328125,5.1025390625,4.4677734375,3.8818359375,2.6611328125,1.7333984375,1.5380859375,2.4658203125,5.4931640625,6.7138671875,7.8857421875,8.1298828125,7.4951171875,7.4951171875,6.2255859375,6.0791015625,6.1767578125,5.8837890625,4.7119140625,4.7119140625,3.8818359375,3.3447265625,2.7099609375,1.9287109375,1.7333984375,1.3916015625,1.2939453125,0.7568359375,2.4658203125,5.3466796875,5.7373046875,5.8837890625,5.8837890625,5.4931640625,4.5166015625,3.9794921875,4.5654296875,4.5654296875,3.9306640625,3.7353515625,3.6376953125,2.5146484375,1.9287109375,0.3173828125,-0.0244140625,-0.9033203125,-1.8798828125,-2.3193359375,-1.5380859375,1.6357421875,3.5400390625,4.0771484375,4.6142578125,3.6865234375,3.1494140625,1.5380859375,1.9287109375,1.3916015625,1.2451171875,1.4404296875,0.5615234375,-0.4150390625,-0.7080078125,-1.3916015625,-2.2216796875,-2.6123046875,-3.5400390625,-4.6142578125,-5.1025390625,-3.2958984375,-0.6591796875,1.3916015625,2.3193359375,2.9541015625,2.4658203125,2.0263671875,1.1962890625,0.5615234375,0.6103515625,0.4150390625,0.4150390625,-0.1708984375,-1.1962890625,-1.9775390625,-2.6123046875,-2.7099609375,-3.3447265625,-4.5654296875,-5.4931640625,-5.8349609375,-5.1025390625,-2.5146484375,-0.8056640625,-0.1708984375,0.3662109375,-0.1220703125,0.0732421875,-0.6103515625,-1.2451171875,-0.8056640625,-0.4638671875,-0.8544921875,-1.8798828125,-1.7333984375,-2.3193359375,-3.1005859375,-3.3935546875,-4.5654296875,-4.7119140625,-6.0791015625,-6.9091796875,-5.9814453125,-3.1494140625,-0.5126953125,-0.1708984375,-0.3173828125,-0.3173828125,-0.3662109375,-1.4892578125,-1.7822265625,-1.7333984375,-1.6845703125,-1.7822265625,-2.3681640625,-2.6123046875,-2.4169921875,-3.1005859375,-3.8818359375,-4.5166015625,-4.7119140625,-4.8583984375,-5.6884765625,-3.8330078125,-1.8798828125,0.2685546875,0.3662109375,0.1708984375,-0.0244140625,-1.1962890625,-1.7333984375,-1.5869140625,-1.1474609375,-0.9521484375,-0.8544921875,-1.7822265625,-1.9287109375,-2.0263671875,-2.9052734375,-3.6865234375,-3.6376953125,-4.4189453125,-4.7119140625,-3.8818359375,-0.7568359375,1.0498046875,2.4658203125,3.1005859375,2.4658203125,2.9052734375,1.7333984375,1.0498046875,1.1962890625,1.5380859375,1.5380859375,1.4892578125,1.2451171875,0.4150390625,0.0244140625,-0.3662109375,-1.4404296875,-2.4658203125,-1.9775390625,-2.6611328125,-0.3662109375,2.1240234375,3.9306640625,4.5166015625,4.5654296875,4.5166015625,4.3212890625,2.8076171875,2.9541015625,3.0517578125,3.0517578125,3.2958984375,2.3193359375,2.0751953125,1.4892578125,1.7822265625,0.8544921875,0.2197265625,0.0244140625,-0.5615234375,0.2685546875,2.6611328125,4.3212890625,5.4443359375,5.2978515625,4.9072265625,4.0771484375,3.7353515625,3.3935546875,3.4912109375,4.1748046875,3.8818359375,3.6376953125,3.2470703125,2.3681640625,1.9287109375,0.6591796875,0.6103515625,-0.4638671875,-0.7568359375,-0.7568359375,2.0751953125,3.9794921875,5.4443359375,5.8837890625,6.0791015625,4.6630859375,3.6865234375,3.1494140625,3.1982421875,2.7587890625,2.5634765625,2.9541015625,2.4169921875,2.2705078125,1.7333984375,1.3427734375,0.3662109375,-0.3173828125,-0.4638671875,-1.4892578125,1.2451171875,3.6865234375,4.8583984375,5.5908203125,5.5419921875,5.0537109375,4.6142578125,3.6865234375,4.3701171875,3.9794921875,3.7353515625,3.5400390625,3.4423828125,2.4658203125,2.3681640625,1.9287109375,1.5380859375,-0.4150390625,-0.2197265625,-0.5615234375,0.9521484375,3.1005859375,4.6630859375,4.8095703125,5.1025390625,5.0537109375,4.0771484375,3.2958984375,3.3447265625,2.7587890625,1.9775390625,2.0263671875,1.6357421875,1.4404296875,0.6591796875,0.0244140625,-0.1220703125,-0.7568359375,-1.5380859375,-1.1474609375,-1.6845703125,0.1220703125,2.8564453125,3.1494140625,3.2470703125,2.9541015625,2.2216796875,1.2939453125,1.2939453125,1.2939453125,1.5380859375,1.5380859375,0.9521484375,0.9521484375,0.3173828125,-0.2197265625,-0.7568359375,-1.3916015625,-1.9775390625,-2.3681640625,-2.7587890625,-1.3427734375,1.7822265625,2.8564453125,3.4423828125,3.3935546875,2.7587890625,2.2705078125,1.1474609375,1.1962890625,1.4404296875,1.4404296875,1.8310546875,0.9033203125,1.0498046875,0.3662109375,-0.0732421875,-0.8056640625,-1.0009765625,-2.1728515625,-2.1728515625,-0.5126953125,1.6845703125,3.3935546875,4.1259765625,3.9306640625,4.4677734375,3.8330078125,2.9052734375,3.0029296875,3.2958984375,3.4423828125,3.5400390625,2.5146484375,2.0751953125,2.2216796875,1.5380859375,1.1962890625,1.0986328125,0.2685546875,-0.2685546875,1.6357421875,4.8583984375,5.6396484375,6.3720703125,7.0068359375,6.5673828125,6.4697265625,5.9814453125,5.8349609375,5.9814453125,6.0302734375,5.5419921875,5.4443359375,5.1513671875,4.5166015625,3.7353515625,3.5888671875,2.7587890625,1.8310546875,1.8310546875,2.3681640625,4.5654296875,6.9580078125,8.9599609375,9.8876953125,9.3505859375,9.1064453125,8.8134765625,7.9833984375,8.4228515625,8.2275390625,7.8369140625,7.8369140625,7.5439453125,7.0556640625,6.7138671875,6.5673828125,6.1279296875,5.8349609375,4.8095703125,5.1025390625,5.5419921875,8.3251953125,9.7412109375,9.7900390625,10.5224609375,10.3271484375,9.0576171875,8.2275390625,8.6669921875,8.8134765625,8.5205078125,8.8623046875,8.4716796875,7.8369140625,7.7880859375,7.5439453125,6.3232421875,5.9814453125,5.9326171875,4.3212890625,5.4443359375,8.2763671875,9.4970703125,10.2294921875,10.0830078125,10.0830078125,9.0576171875,8.4716796875,7.3486328125,8.0322265625,8.2275390625,8.1787109375,7.5927734375,7.1533203125,7.1533203125,6.1279296875,5.7373046875,5.2978515625,4.6142578125,4.9072265625,5.4931640625,8.6669921875,10.0341796875,10.2783203125,10.9619140625,9.9853515625,9.7900390625,8.5693359375,8.6669921875,8.9599609375,8.9599609375,8.5205078125,7.8857421875,7.1044921875,7.0556640625,6.4697265625,6.2744140625,5.1513671875,5.1513671875,5.3955078125,7.8857421875,9.2041015625,11.2548828125,11.4501953125,11.7919921875,11.8408203125,10.5224609375,9.8388671875,9.8388671875,9.6435546875,10.3759765625,9.9853515625,9.0576171875,8.9111328125,7.6904296875,7.2998046875,6.5185546875,6.5673828125,5.4443359375,4.7119140625,6.7138671875,8.7158203125,10.7666015625,11.9384765625,12.1826171875,12.0361328125,11.3037109375,9.8876953125,10.5224609375,10.4736328125,10.7666015625,10.3271484375,9.8388671875,9.0087890625,9.0087890625,8.6181640625,8.3251953125,7.5927734375,7.2509765625,6.2744140625,5.9326171875,8.0322265625,10.3759765625,10.8642578125,11.8408203125,11.1083984375,11.5478515625,10.5712890625,9.8388671875,10.4736328125,10.3759765625,9.6923828125,9.6923828125,9.5947265625,8.8623046875,8.7646484375,8.1787109375,7.7392578125,7.4951171875,6.4208984375,6.6162109375,8.7158203125,10.3759765625,11.8408203125,11.9873046875,11.9384765625,10.9130859375,10.1318359375,10.3271484375,10.5712890625,10.9619140625,11.1083984375,10.3271484375,10.4248046875,10.1806640625,9.6923828125,9.3994140625,8.7158203125,7.4951171875,7.3486328125,6.9580078125,9.2529296875,10.8642578125,12.0849609375,12.2314453125,12.2314453125,12.3291015625,11.5478515625,10.5712890625,11.5478515625,11.4990234375,11.9873046875,11.4013671875,10.9130859375,10.7666015625,10.1318359375,9.6435546875,9.2041015625,8.9599609375,7.9345703125,7.5439453125,8.9111328125,11.5966796875,13.2568359375,14.2822265625,14.6240234375,14.7216796875,13.8916015625,13.0615234375,12.6708984375,12.2314453125,12.0361328125,12.3779296875,11.6943359375,11.3525390625,11.0107421875,10.2783203125,9.6435546875,9.2041015625,8.4716796875,8.0322265625,7.3974609375,8.8134765625,11.4501953125,13.2080078125,14.1357421875,14.4775390625,13.7939453125,13.1591796875,12.3779296875,12.4267578125,12.2802734375,12.2314453125,12.0849609375,11.9873046875,11.2548828125,10.7666015625,10.3759765625,9.3994140625,9.3017578125,8.8623046875,7.9833984375,7.5927734375,7.6904296875,9.8876953125,11.8408203125,12.6708984375,12.5244140625,11.8408203125,12.0849609375,11.3525390625,11.2060546875,11.4501953125,11.8408203125,11.0595703125,10.8642578125,10.3271484375,9.9365234375,9.0576171875,8.6181640625,8.0322265625,7.3486328125,6.4697265625,6.3232421875,7.9345703125,10.7177734375,11.9873046875,12.5732421875,12.0849609375,12.3779296875,11.5966796875,10.3271484375,10.4248046875,11.0107421875,11.4013671875,11.3525390625,10.8642578125,10.5224609375,10.4248046875,9.5947265625,9.4482421875,8.8134765625,8.2275390625,7.2509765625,7.1533203125,9.3505859375,12.0361328125,13.5986328125,14.2333984375,14.0869140625,13.5498046875,13.0615234375,11.9873046875,12.2314453125,12.3779296875,12.3779296875,11.6943359375,11.7431640625,11.4013671875,10.8642578125,10.7177734375,9.5947265625,9.2529296875,8.0322265625,7.3974609375,7.3974609375,9.0087890625,12.4267578125,13.6962890625,14.2333984375,14.4775390625,15.2587890625,14.7705078125,13.5498046875,13.4521484375,13.5498046875,13.7451171875,12.7197265625,12.5732421875,11.6455078125,11.5966796875,10.9130859375,9.7900390625,9.4482421875,8.9111328125,7.8369140625,6.9580078125,7.2021484375,9.3994140625,11.7431640625,12.6708984375,13.5009765625,13.7451171875,13.5009765625,12.1337890625,11.5966796875,11.4990234375,11.0107421875,11.2060546875,10.5712890625,10.5224609375,9.8388671875,9.0576171875,8.5693359375,7.9833984375,7.5927734375,6.4208984375,5.6396484375,4.7607421875,4.5166015625,6.6162109375,9.2529296875,10.8154296875,11.6943359375,11.4990234375,10.8154296875,9.6923828125,9.2041015625,8.9599609375,9.6435546875,9.6923828125,9.3505859375,9.1552734375,8.5693359375,8.0322265625,7.5439453125,7.3486328125,6.4208984375,5.6884765625,5.3955078125,4.6142578125,4.5654296875,8.3251953125,9.4482421875,10.1806640625,10.5712890625,10.0341796875,9.3017578125,8.5205078125,8.8134765625,9.2041015625,9.2041015625,9.2041015625,8.8134765625,8.3740234375,7.5439453125,7.2021484375,7.0556640625,6.2744140625,6.2255859375,5.1025390625,4.8583984375,6.6162109375,9.4482421875,11.0107421875,11.9384765625,11.3037109375,11.4990234375,10.0830078125,9.9853515625,9.5458984375,9.6435546875,9.8388671875,9.5458984375,9.2529296875,8.7646484375,8.2275390625,7.9345703125,7.6416015625,7.2998046875,5.9814453125,5.3466796875,5.6884765625,9.0087890625,10.5224609375,11.6455078125,12.6220703125,12.4755859375,12.6708984375,11.1572265625,10.6201171875,10.9619140625,11.3525390625,11.3525390625,11.3525390625,11.1572265625,10.3759765625,10.5224609375,9.5947265625,9.3017578125,8.5693359375,8.7158203125,8.1298828125,10.2294921875,12.5244140625,14.3310546875,15.0146484375,15.2099609375,15.0146484375,14.1357421875,13.7939453125,13.2080078125,13.8427734375,13.4521484375,13.0126953125,13.0126953125,12.9150390625,12.0849609375,11.2548828125,11.0107421875,11.0107421875,10.0830078125,9.6435546875,9.6435546875,12.7197265625,15.3564453125,15.6982421875,15.7470703125,15.7958984375,15.4052734375,14.8193359375,13.9892578125,15.1611328125,15.0146484375,14.8681640625,14.4775390625,14.0380859375,13.6962890625,13.0615234375,12.1337890625,11.4990234375,11.2060546875,10.4736328125,10.2783203125,10.8642578125,13.5009765625,15.4541015625,16.2353515625,16.3330078125,16.1865234375,15.3076171875,14.3310546875,14.5751953125,14.8193359375,14.8681640625,14.7705078125,14.0869140625,13.5009765625,12.8662109375,13.0126953125,12.6708984375,11.5966796875,11.4501953125,9.9853515625,11.0595703125,13.9892578125,15.9912109375,15.5517578125,16.1376953125,15.9423828125,15.2587890625,14.0380859375,13.5009765625,13.6962890625,13.7939453125,13.7939453125,13.0615234375,12.7197265625,12.0361328125,11.4013671875,10.8154296875,10.5224609375,9.5947265625,9.4482421875,10.6201171875,13.2568359375,14.7216796875,15.3076171875,15.9423828125,15.2099609375,14.7216796875,13.6962890625,13.8427734375,14.1845703125,13.5498046875,14.0380859375,12.8662109375,12.4267578125,11.9384765625,11.1572265625,11.2060546875,9.9853515625,9.4970703125,9.3017578125,9.5947265625,12.0361328125,14.3310546875,15.0146484375,15.8447265625,15.6982421875,14.8193359375,13.7939453125,13.3544921875,13.2568359375,13.3544921875,13.0615234375,12.8173828125,12.3779296875,11.4013671875,11.0595703125,11.0595703125,10.3271484375,9.5458984375,8.8623046875,8.5693359375,9.8876953125,12.6220703125,13.8427734375,13.9892578125,14.2333984375,13.6474609375,13.0126953125,11.4990234375,11.6455078125,11.0595703125,11.9873046875,11.2548828125,11.0595703125,10.1806640625,9.6435546875,9.0576171875,8.5205078125,8.4228515625,7.4951171875,7.1533203125,6.1767578125,6.1279296875,8.6181640625,10.4248046875,11.8408203125,11.8896484375,11.6943359375,11.9873046875,10.9130859375,9.6923828125,10.2783203125,10.2294921875,10.1806640625,9.4970703125,9.7412109375,9.1064453125,8.6669921875,8.3740234375,7.4462890625,6.7626953125,7.0068359375,5.7373046875,5.6396484375,6.7626953125,8.5693359375,10.7666015625,11.3037109375,10.7177734375,10.4248046875,9.3994140625,8.8623046875,8.8134765625,8.6669921875,8.4716796875,8.4716796875,8.6181640625,8.0810546875,8.0810546875,7.2998046875,6.5185546875,5.9814453125,5.4931640625,4.9560546875,4.9072265625,4.0283203125,7.3974609375,9.3017578125,10.5224609375,10.6201171875,10.5224609375,10.2783203125,9.3994140625,8.7158203125,9.4482421875,9.2529296875,9.1552734375,9.1064453125,8.7646484375,8.5205078125,7.7392578125,7.2509765625,6.9580078125,6.0791015625,5.9326171875,5.4443359375,4.5654296875,5.3466796875,8.4716796875,10.2294921875,11.2548828125,11.5966796875,11.9384765625,11.1572265625,9.8388671875,9.5947265625,10.0341796875,10.0830078125,9.9853515625,9.6435546875,9.5458984375,9.3017578125,8.7158203125,7.7880859375,7.8857421875,7.1533203125,6.1279296875,6.3232421875,5.4931640625,5.7861328125,8.0322265625,10.5224609375,12.2314453125,12.4267578125,12.4755859375,12.3291015625,10.7666015625,10.3271484375,10.4736328125,10.7177734375,11.0595703125,10.6689453125,10.5712890625,10.2294921875,9.7412109375,9.0087890625,8.7158203125,8.4228515625,7.2998046875,6.6650390625,6.4697265625,6.9091796875,10.0341796875,13.5009765625,15.8935546875,15.6982421875,13.4521484375,13.1103515625,11.6455078125,11.1083984375,11.3037109375,11.3037109375,11.5966796875,10.9619140625,10.1806640625,9.8876953125,9.2041015625,8.5205078125,7.8857421875,7.1533203125,6.9091796875,6.4697265625,6.9580078125,9.7412109375,11.8408203125,12.7197265625,12.3779296875,12.0849609375,11.3037109375,10.2783203125,10.0830078125,10.2294921875,9.9365234375,9.0576171875,8.8134765625,8.7158203125,7.8857421875,7.3486328125,6.7138671875,6.3232421875,5.4443359375,4.6630859375,4.3212890625,7.1044921875,8.7158203125,9.7412109375,10.4736328125,10.0341796875,9.4970703125,8.4716796875,7.9833984375,8.0322265625,8.4716796875,8.0810546875,7.3486328125,6.8603515625,6.6162109375,5.8349609375,5.2001953125,4.5654296875,3.6376953125,3.2470703125,2.6123046875,3.4912109375,7.0556640625,8.4716796875,9.0087890625,9.3017578125,8.3740234375,8.4716796875,7.2998046875,6.9580078125,7.9345703125,7.5439453125,7.5927734375,6.5673828125,6.6162109375,5.9814453125,5.2978515625,4.9560546875,3.6376953125,3.8818359375,3.0029296875,3.0517578125,5.3466796875,7.9833984375,9.1064453125,9.9853515625,9.6435546875,9.7412109375,9.5947265625,8.3740234375,8.3251953125,8.1298828125,8.9599609375,9.2041015625,8.3740234375,7.7880859375,7.2998046875,6.4208984375,6.5673828125,5.4443359375,5.5908203125,5.1513671875,4.1748046875,5.0537109375,7.1533203125,9.3994140625,11.2060546875,11.4501953125,11.3525390625,11.0595703125,10.5712890625,9.8388671875,9.6435546875,9.9853515625,10.0830078125,9.4970703125,9.2041015625,8.8623046875,8.4716796875,7.7392578125,7.4951171875,6.6162109375,5.5908203125,4.8095703125,4.5166015625,6.0302734375,8.3740234375,9.8388671875,11.0107421875,10.9130859375,10.4736328125,10.3759765625,9.3994140625,9.3017578125,9.3017578125,9.3505859375,9.6435546875,9.3017578125,8.9599609375,8.1787109375,7.5927734375,7.6904296875,6.9091796875,5.2001953125,5.0048828125,4.6630859375,4.0283203125,6.4208984375,8.5205078125,9.6435546875,9.6435546875,9.5458984375,9.4482421875,8.6669921875,8.0810546875,8.4716796875,8.4716796875,8.5693359375,8.2275390625,7.2021484375,7.2998046875,6.5185546875,6.0302734375,5.1025390625,4.6630859375,3.8818359375,3.8330078125,3.9306640625,6.6650390625,8.5693359375,8.7158203125,8.8134765625,8.5205078125,8.1787109375,7.0068359375,6.8115234375,7.7880859375,7.3974609375,7.0068359375,7.5439453125,7.2509765625,6.6162109375,5.9326171875,5.3466796875,4.8095703125,4.0283203125,3.9794921875,3.4423828125,5.2490234375,7.9833984375,9.1064453125,9.3994140625,9.1064453125,9.4970703125,9.0576171875,7.8369140625,8.0810546875,7.9833984375,8.1787109375,7.5927734375,7.4951171875,6.7138671875,6.4208984375,5.4931640625,5.1513671875,5.1025390625,4.3212890625,3.8330078125,5.1025390625,7.7392578125,9.4970703125,10.1318359375,10.5712890625,10.4736328125,9.8388671875,8.4716796875,8.3740234375,8.4716796875,8.9599609375,8.6181640625,8.2275390625,7.2998046875,6.8115234375,6.3720703125,6.2255859375,5.4931640625,4.7607421875,4.4677734375,4.6630859375,7.6416015625,8.9599609375,10.3759765625,10.4736328125,10.3271484375,9.7900390625,8.7158203125,8.6181640625,8.4228515625,8.5693359375,8.6181640625,7.8369140625,7.3486328125,6.7626953125,6.8603515625,6.6650390625,6.0302734375,5.2978515625,4.7119140625,4.3212890625,5.6884765625,8.3740234375,9.6923828125,10.0830078125,10.0830078125,9.5458984375,8.7646484375,8.2763671875,8.6181640625,8.3740234375,8.6181640625,8.0322265625,7.4462890625,7.4951171875,6.6162109375,6.9091796875,6.4697265625,5.2490234375,5.1025390625,4.4677734375,6.2255859375,8.4228515625,9.1552734375,9.5458984375,9.6435546875,9.1552734375,8.4228515625,8.4228515625,8.0810546875,8.4716796875,8.5205078125,8.2275390625,7.8857421875,7.5927734375,6.8603515625,6.6162109375,6.4208984375,6.2255859375,5.3466796875,5.4443359375,7.5927734375,9.3017578125,10.1318359375,10.4736328125,9.8388671875,9.1064453125,8.4228515625,8.1787109375,8.8623046875,8.2763671875,8.6181640625,8.3740234375,7.9345703125,7.1533203125,7.1044921875,6.0302734375,6.0791015625,5.2490234375,4.8583984375,7.4462890625,9.2529296875,10.1806640625,10.3759765625,10.0830078125,10.6689453125,10.1318359375,9.6435546875,9.8876953125,9.6923828125,9.7412109375,9.3994140625,9.4482421875,8.9599609375,8.1298828125,7.6904296875,7.6416015625,6.8115234375,6.3720703125,6.9091796875,9.5458984375,11.0107421875,12.3779296875,12.3291015625,12.5244140625,12.6708984375,12.2314453125,11.4990234375,11.2548828125,12.2314453125,11.8896484375,11.8408203125,11.3525390625,11.0595703125,10.5712890625,10.1806640625,9.7412109375,9.5458984375,9.0087890625,8.9111328125,11.7919921875,13.8916015625,14.7216796875,15.4052734375,15.4052734375,15.4052734375,15.5029296875,14.6728515625,14.7705078125,15.0634765625,15.1611328125,15.1611328125,14.8193359375,13.9892578125,13.7451171875,12.2802734375,12.6708984375,11.4501953125,11.6943359375,11.2548828125,10.6689453125,12.8173828125,15.3076171875,16.5771484375,17.1142578125,17.2119140625,17.4072265625,16.7724609375,15.6982421875,15.9423828125,15.9912109375,16.2353515625,16.0400390625,15.1123046875,14.6240234375,13.6962890625,13.3544921875,12.2802734375,11.8896484375,11.1083984375,10.0341796875,9.8876953125,12.2314453125,14.7216796875,15.6005859375,15.5029296875,14.7705078125,14.6240234375,13.0615234375,13.0126953125,13.0615234375,13.4033203125,12.9638671875,12.2802734375,11.5478515625,10.7666015625,9.7900390625,8.5693359375,8.1787109375,7.1533203125,7.2021484375,5.9814453125,7.6904296875,9.9365234375,11.7431640625,12.3291015625,11.4501953125,10.8154296875,9.5947265625,8.4716796875,8.3740234375,9.0087890625,8.6669921875,8.2275390625,8.0810546875,7.2021484375,6.4208984375,6.1279296875,4.9560546875,4.7119140625,3.0517578125,2.8564453125,3.4912109375,5.9814453125,8.3740234375,9.1064453125,8.6669921875,8.8134765625,8.2275390625,7.5439453125,6.6650390625,7.0556640625,7.4462890625,6.9091796875,5.6884765625,5.8349609375,4.9560546875,4.1748046875,4.5166015625,3.8818359375,3.4423828125,2.6611328125,3.5400390625,5.6884765625,7.2021484375,8.7158203125,8.9111328125,8.7158203125,8.0322265625,7.0068359375,6.5673828125,6.6162109375,6.6650390625,6.5673828125,6.0791015625,5.6884765625,4.9560546875,3.9794921875,4.1259765625,3.0517578125,2.2216796875,1.4404296875,0.9033203125,1.5380859375,4.8095703125,7.2998046875,7.8857421875,8.7646484375,7.6904296875,7.1533203125,6.1767578125,5.0537109375,5.8837890625,6.2255859375,6.2255859375,5.2978515625,4.8095703125,4.4189453125,3.6865234375,3.1982421875,3.1005859375,2.0263671875,1.0009765625,0.5615234375,0.5615234375,3.0517578125,5.9326171875,6.7138671875,7.5439453125,7.1533203125,7.1533203125,6.7138671875,5.7373046875,6.6162109375,6.0791015625,5.2978515625,5.5908203125,4.9072265625,4.7607421875,3.8330078125,4.1748046875,3.9794921875,3.0029296875,2.6123046875,1.9775390625,3.0029296875,5.0048828125,6.8603515625,8.0322265625,8.2763671875,7.6416015625,7.4462890625,6.4697265625,6.2744140625,6.5673828125,6.2255859375,6.3720703125,6.1279296875,5.3466796875,4.9560546875,4.1748046875,3.9794921875,2.6611328125,2.4658203125,1.3427734375,1.0498046875,3.1494140625,6.2744140625,8.3740234375,9.2041015625,8.5205078125,8.2275390625,7.8369140625,6.7138671875,6.9091796875,7.1533203125,6.2744140625,7.1044921875,6.1279296875,6.1279296875,5.1025390625,4.6142578125,3.6865234375,3.0517578125,2.1240234375,1.3427734375,0.7568359375,3.8330078125,6.2255859375,7.2509765625,7.7880859375,7.3486328125,7.2509765625,6.0302734375,5.3955078125,5.4931640625,5.3955078125,5.6396484375,5.0537109375,4.1748046875,4.1259765625,3.4912109375,2.8564453125,1.8310546875,1.6845703125,0.8056640625,0.6103515625,0.7568359375,2.8564453125,4.7607421875,5.5419921875,6.1767578125,5.5908203125,5.4443359375,3.8330078125,4.1748046875,3.8330078125,4.0771484375,3.2958984375,3.4912109375,2.9541015625,2.6611328125,2.0751953125,1.7333984375,1.2451171875,1.2451171875,0.5126953125,0.3662109375,-0.6103515625,1.3427734375,3.7841796875,5.1025390625,5.2001953125,4.8583984375,4.4677734375,4.3212890625,3.2470703125,3.0517578125,3.4423828125,3.7841796875,3.1982421875,2.7099609375,2.7099609375,1.3916015625,0.7568359375,0.4638671875,-0.7080078125,-0.8544921875,-1.7822265625,-2.5634765625,-2.2705078125,0.9521484375,2.9541015625,3.7841796875,3.4912109375,3.3935546875,2.9052734375,1.9775390625,2.1240234375,1.6357421875,1.8798828125,1.7333984375,1.7822265625,1.6845703125,0.6591796875,0.6103515625,0.4150390625,-0.2685546875,-1.2451171875,-1.4404296875,-2.4658203125,-1.9775390625,0.9033203125,2.4658203125,3.1005859375,3.6376953125,3.0517578125,2.9052734375,2.3193359375,1.7822265625,2.2216796875,2.2705078125,1.6845703125,2.0263671875,1.5869140625,0.5615234375,0.4150390625,-0.4638671875,-0.8544921875,-1.2451171875,-2.1240234375,-2.2705078125,0.2685546875,2.7099609375,3.3935546875,3.7841796875,3.7353515625,3.8818359375,3.4423828125,2.6123046875,2.9052734375,3.4912109375,3.4912109375,3.2470703125,2.5146484375,2.3193359375,1.7333984375,1.4892578125,0.7080078125,0.2197265625,-0.0244140625,0.1220703125,2.0751953125,4.6630859375,6.1767578125,6.8115234375,6.4697265625,6.3720703125,5.7373046875,5.4443359375,5.2490234375,5.2490234375,4.6630859375,4.2236328125,4.2236328125,3.5400390625,2.9052734375,2.5634765625,1.7822265625,1.6357421875,1.6357421875,1.2939453125,2.3681640625,5.2490234375,7.4951171875,8.4228515625,8.5693359375,8.1787109375,7.0556640625,6.3720703125,6.5673828125,6.0791015625,6.4697265625,6.6650390625,6.4208984375,6.6162109375,6.2255859375,5.6396484375,5.2001953125,3.7841796875,3.4423828125,2.7099609375,2.7099609375,3.9794921875,6.9580078125,8.3740234375,9.6923828125,9.7412109375,9.0087890625,8.6181640625,7.5439453125,8.1787109375,7.9833984375,8.0322265625,7.3974609375,7.2998046875,7.2021484375,6.2255859375,6.1279296875,5.4931640625,4.3212890625,3.8330078125,3.5888671875,3.2470703125,3.7841796875,6.2744140625,8.1298828125,8.7158203125,9.0087890625,9.1064453125,8.7646484375,8.4228515625,7.9833984375,8.3740234375,8.4716796875,8.6669921875,7.9833984375,7.8857421875,7.6904296875,6.9091796875,6.9091796875,5.9814453125,5.3955078125,4.6142578125,4.3701171875,5.2490234375,7.6904296875,9.4482421875,9.8388671875,9.7900390625,9.9853515625,9.7412109375,8.7646484375,9.2041015625,9.3994140625,9.5947265625,9.3017578125,9.2529296875,8.8134765625,8.2763671875,8.2763671875,7.7392578125,7.0068359375,6.6162109375,6.5185546875,5.1025390625,7.0068359375,9.9365234375,10.9619140625,11.6943359375,11.5478515625,11.4013671875,11.3525390625,10.2783203125,10.9619140625,11.2548828125,11.3525390625,11.0595703125,10.7177734375,10.1318359375,9.3505859375,9.6435546875,8.5205078125,8.2275390625,7.5439453125,7.5439453125,7.1044921875,8.0322265625,9.7412109375,12.1826171875,13.7451171875,13.9892578125,13.3056640625,13.2080078125,12.6220703125,12.1337890625,11.9384765625,12.4755859375,12.5244140625,12.1826171875,12.0361328125,11.7431640625,11.4990234375,10.8154296875,10.1806640625,10.3759765625,9.9365234375,9.4482421875,9.3994140625,11.8896484375,14.4287109375,15.9912109375,16.3818359375,16.4306640625,16.1376953125,15.1611328125,14.6240234375,14.0869140625,14.7216796875,15.0634765625,14.3798828125,14.3310546875,13.7939453125,13.2568359375,13.8916015625,13.2080078125,13.1103515625,12.9638671875,12.1826171875,11.4501953125,13.0126953125,15.3076171875,16.8701171875,17.5048828125,17.3095703125,17.2119140625,16.2353515625,15.2587890625,15.2587890625,16.1376953125,16.1865234375,15.0634765625,14.8681640625,14.1845703125,14.0869140625,13.4033203125,13.1591796875,11.6943359375,11.0595703125,10.1806640625,10.2783203125,12.0361328125,14.2333984375,15.3076171875,15.3076171875,14.9658203125,14.4287109375,13.5986328125,13.1591796875,13.0615234375,13.3544921875,12.9638671875,12.3291015625,11.7431640625,10.8642578125,10.3759765625,9.3505859375,8.5693359375,8.5205078125,7.3974609375,6.3232421875,7.3974609375,9.4970703125,10.7177734375,10.9619140625,11.7919921875,11.1083984375,10.4248046875,9.6923828125,8.8134765625,9.6923828125,9.0087890625,9.3017578125,8.4228515625,8.2275390625,6.8603515625,7.0068359375,6.5673828125,5.0537109375,4.7607421875,4.7607421875,5.2001953125,7.5927734375,9.0087890625,10.1806640625,10.1806640625,9.6435546875,9.3505859375,8.5205078125,8.1787109375,8.8134765625,8.6181640625,8.5205078125,9.2529296875,8.2763671875,7.2998046875,6.8603515625,5.9814453125,5.4443359375,4.5654296875,4.3701171875,4.1259765625,6.3720703125,8.1787109375,9.0087890625,10.0830078125,10.0341796875,9.6435546875,9.1064453125,9.0087890625,8.5205078125,9.1064453125,8.9599609375,8.2763671875,7.8857421875,7.9345703125,6.5185546875,6.3720703125,6.1279296875,6.1767578125,5.5419921875,4.9560546875,5.6884765625,8.4716796875,9.8388671875,10.4736328125,10.3271484375,10.2783203125,9.3994140625,9.0087890625,8.5205078125,8.8623046875,9.1064453125,8.8623046875,8.7158203125,7.7880859375,7.5927734375,7.2998046875,6.6650390625,6.5185546875,5.6884765625,5.0048828125,6.0791015625,7.8369140625,9.6923828125,10.0830078125,11.0107421875,10.0830078125,9.1552734375,8.2763671875,8.6669921875,8.3251953125,8.2275390625,8.1298828125,7.8369140625,7.0068359375,6.4697265625,6.1279296875,5.3466796875,5.3955078125,4.4189453125,4.2724609375,4.0771484375,6.8115234375,8.5205078125,9.2529296875,9.3994140625,9.5947265625,9.3994140625,8.4716796875,8.6181640625,8.3251953125,8.8623046875,9.1552734375,8.5205078125,8.0322265625,7.9833984375,7.3486328125,6.9091796875,6.4697265625,5.4931640625,5.1025390625,5.2978515625,7.3486328125,9.3505859375,10.8642578125,11.0107421875,11.4501953125,11.4501953125,10.2294921875,9.9853515625,10.0830078125,10.6689453125,10.8642578125,10.6201171875,10.5224609375,9.5458984375,9.7900390625,9.1064453125,8.7158203125,8.4716796875,7.1044921875,7.2509765625,8.2763671875,10.8154296875,11.7431640625,13.0126953125,13.6962890625,13.8916015625,13.1103515625,12.6220703125,12.0361328125,12.7197265625,12.6220703125,12.4755859375,12.2802734375,11.4013671875,10.6689453125,10.3759765625,9.2041015625,8.5205078125,8.1787109375,7.3974609375,6.4208984375,7.5927734375,9.3994140625,11.4501953125,11.6455078125,11.6943359375,11.9873046875,11.7919921875,10.6689453125,10.8642578125,10.7177734375,11.6455078125,11.2060546875,10.1806640625,10.0341796875,9.1552734375,8.6669921875,8.3740234375,6.9580078125,6.3232421875,4.8095703125,4.7607421875,5.9814453125,8.3251953125,10.0341796875,10.9130859375,10.8154296875,10.7666015625,10.0341796875,9.6435546875,9.0576171875,8.9111328125,9.2529296875,8.9599609375,9.0087890625,8.7646484375,8.7158203125,7.7880859375,7.5927734375,6.1767578125,4.4189453125,4.4677734375,3.8330078125,5.5908203125,8.3740234375,9.6923828125,10.1318359375,9.9853515625,10.3759765625,8.6181640625,8.4716796875,8.3740234375,8.1787109375,7.9345703125,7.7880859375,7.2021484375,7.7880859375,7.0556640625,6.7626953125,6.5673828125,5.8349609375,4.8583984375,4.8583984375,5.8349609375,7.9345703125,9.6923828125,9.5458984375,9.3994140625,9.6923828125,9.5458984375,8.4716796875,8.6669921875,8.7158203125,9.1552734375,8.8134765625,8.5205078125,7.3974609375,7.2021484375,6.2255859375,5.9814453125,5.8349609375,4.9560546875,5.2978515625,6.2744140625,9.1552734375,10.0830078125,11.7431640625,12.0849609375,11.9873046875,11.9384765625,11.1083984375,10.6201171875,11.2060546875,11.4013671875,11.4990234375,10.8642578125,10.1806640625,9.6923828125,9.3994140625,8.3251953125,7.6416015625,7.5927734375,5.8837890625,5.3955078125,7.2021484375,9.7900390625,11.8896484375,12.7685546875,12.7197265625,12.6220703125,12.1337890625,11.1572265625,11.1083984375,11.3525390625,11.0595703125,10.3759765625,10.4248046875,10.3271484375,9.1064453125,8.4228515625,8.3251953125,7.8857421875,6.3720703125,5.8837890625,5.1513671875,5.8349609375,9.2529296875,10.9619140625,11.6455078125,11.7431640625,11.5478515625,10.7666015625,9.6923828125,10.3271484375,9.8388671875,9.7412109375,9.1064453125,8.7646484375,8.4716796875,8.0810546875,6.9580078125,6.8115234375,6.3232421875,5.2490234375,4.7119140625,4.2236328125,5.0048828125,8.0322265625,9.4482421875,10.3271484375,10.6689453125,10.4736328125,9.3994140625,8.3251953125,8.1298828125,8.5693359375,7.7880859375,7.4951171875,6.5673828125,6.4208984375,5.7373046875,4.9072265625,4.4189453125,3.7353515625,3.3447265625,2.7587890625,2.5146484375,4.9560546875,7.4462890625,8.8134765625,9.9853515625,9.6923828125,9.2041015625,8.3740234375,7.9345703125,7.8369140625,7.8857421875,7.6904296875,7.3974609375,7.3486328125,7.2021484375,6.1767578125,6.1279296875,5.1513671875,4.5166015625,3.5400390625,3.1982421875,2.9541015625,5.1025390625,7.7880859375,9.2041015625,10.3271484375,10.2294921875,10.3271484375,10.0830078125,8.4716796875,8.2275390625,8.2763671875,8.2275390625,8.2275390625,8.1787109375,6.5673828125,6.7626953125,5.8837890625,5.1513671875,4.8095703125,4.0283203125,3.3935546875,3.1494140625,4.2236328125,6.4208984375,8.9111328125,9.5947265625,10.0830078125,10.0830078125,9.2041015625,8.2275390625,8.3251953125,8.3740234375,9.3505859375,8.6669921875,8.1298828125,7.8857421875,7.5439453125,6.4208984375,6.1279296875,5.9326171875,4.6630859375,4.3212890625,3.7841796875,3.6865234375,6.7626953125,8.8623046875,9.6923828125,9.4970703125,9.3505859375,9.1552734375,8.4716796875,8.5205078125,8.4228515625,8.9111328125,8.5205078125,8.2275390625,7.6904296875,7.4951171875,6.7626953125,6.2744140625,5.2490234375,5.0048828125,4.1259765625,3.8818359375,4.7607421875,7.3486328125,9.1064453125,10.0341796875,10.0830078125,9.4970703125,9.0576171875,8.7158203125,8.3740234375,8.3740234375,8.4228515625,8.3740234375,8.0810546875,7.8369140625,7.2998046875,6.3720703125,5.2978515625,5.1025390625,4.1259765625,3.7353515625,3.2958984375,5.5419921875,7.7880859375,9.3017578125,10.2294921875,10.0830078125,10.0830078125,9.7900390625,9.4482421875,9.7412109375,9.9365234375,10.2783203125,9.5458984375,9.4970703125,8.0810546875,7.7392578125,7.2998046875,7.1044921875,5.9814453125,5.1513671875,4.7119140625,5.2001953125,7.8369140625,10.1318359375,11.9384765625,12.2802734375,12.0849609375,10.8642578125,10.4736328125,9.7900390625,9.4970703125,9.6435546875,9.5458984375,9.2529296875,9.1064453125,8.4228515625,7.7880859375,7.3486328125,5.9814453125,5.8837890625,4.4189453125,4.3212890625,3.9794921875,6.4208984375,8.0322265625,9.6435546875,9.9365234375,9.4970703125,9.9365234375,8.5205078125,7.3974609375,7.8857421875,6.9091796875,6.9091796875,7.1044921875,6.4208984375,5.7373046875,5.1025390625,4.6630859375,4.0283203125,3.3935546875,2.3193359375,1.7822265625,1.3427734375,3.0517578125,4.8583984375,6.5673828125,6.8115234375,6.3232421875,6.0791015625,5.6884765625,5.0537109375,5.2001953125,5.7861328125,4.5654296875,4.4189453125,4.0283203125,3.1982421875,2.7587890625,2.3681640625,1.1474609375,1.0986328125,-0.2685546875,-0.7568359375,-0.2685546875,1.4892578125,4.3212890625,5.6396484375,4.7119140625,4.9072265625,4.0283203125,2.4169921875,2.3193359375,2.9052734375,3.0029296875,2.6611328125,2.6123046875,2.3681640625,2.3193359375,1.5869140625,1.3916015625,0.4150390625,-0.8544921875,-1.3427734375,-1.6845703125,0.3662109375,2.3681640625,3.8330078125,4.6142578125,4.8095703125,4.5654296875,2.6611328125,2.3681640625,2.4658203125,2.8076171875,2.4169921875,2.2705078125,1.5380859375,1.0009765625,1.1474609375,0.5615234375,-0.7080078125,-0.5615234375,-1.5869140625,-1.9775390625,-1.3427734375,1.3427734375,3.4423828125,4.1259765625,4.4189453125,4.2236328125,3.6865234375,3.1494140625,3.2958984375,2.8076171875,3.1494140625,3.1494140625,2.5634765625,1.9775390625,1.7333984375,1.4404296875,1.0009765625,0.6103515625,-0.2197265625,-1.0986328125,-1.0986328125,0.4150390625,3.1982421875,4.2724609375,4.5166015625,4.2236328125,3.8818359375,3.5400390625,2.8076171875,2.4658203125,2.4658203125,2.5634765625,2.7587890625,1.9775390625,1.1474609375,0.9521484375,0.0732421875,-0.1220703125,-0.3662109375,-1.7333984375,-1.6845703125,-2.2705078125,-1.3427734375,1.2939453125,2.5634765625,3.0517578125,3.2958984375,2.1240234375,1.6357421875,0.5126953125,0.0244140625,1.0498046875,1.1474609375,0.8544921875,1.0986328125,-0.0732421875,0.1220703125,-0.2685546875,-0.8544921875,-1.0498046875,-2.1728515625,-2.5634765625,-2.6611328125,-0.2197265625,1.7333984375,2.7099609375,2.9052734375,1.7333984375,2.2216796875,1.1962890625,0.8544921875,1.3427734375,1.1474609375,0.7568359375,0.8544921875,0.4638671875,-0.2685546875,-0.0732421875,-0.9521484375,-1.3427734375,-2.3193359375,-2.4169921875,-2.9541015625,-1.2451171875,1.0009765625,2.1240234375,2.5634765625,1.9775390625,1.7822265625,1.0498046875,1.1474609375,1.1962890625,1.5380859375,1.8798828125,0.8056640625,-0.1708984375,-0.1220703125,-0.6591796875,-1.1962890625,-2.0751953125,-2.2705078125,-2.9052734375,-3.2958984375,-0.8056640625,1.8310546875,2.9052734375,3.6865234375,3.6865234375,3.2470703125,2.7587890625,1.7333984375,1.8310546875,2.4169921875,2.3193359375,2.9052734375,2.6123046875,2.3681640625,1.4404296875,0.8056640625,0.3173828125,-0.0732421875,-1.2939453125,-1.6357421875,-1.1962890625,1.7822265625,3.9794921875,5.2978515625,4.8583984375,4.6630859375,4.2724609375,3.9794921875,3.1982421875,3.7841796875,3.4423828125,3.1982421875,3.3935546875,2.7099609375,2.4169921875,2.4169921875,2.3681640625,1.7333984375,1.5380859375,0.4638671875,0.0244140625,0.4638671875,3.4912109375,5.2001953125,5.8837890625,5.9326171875,5.6884765625,5.2490234375,3.4423828125,4.6630859375,4.5654296875,4.3701171875,4.3212890625,4.3212890625,3.7841796875,3.3935546875,2.8564453125,2.6123046875,2.1728515625,1.8798828125,1.2939453125,1.3916015625,3.9794921875,5.8837890625,6.7626953125,7.1044921875,6.8115234375,5.5419921875,5.6396484375,4.7119140625,4.8583984375,5.2978515625,5.7861328125,5.0048828125,4.5166015625,3.9306640625,3.7841796875,3.0029296875,2.4658203125,1.6357421875,1.3916015625,2.4169921875,5.1025390625,7.2021484375,7.5927734375,7.9833984375,7.7880859375,7.2509765625,6.2744140625,6.0791015625,5.9326171875,5.6884765625,5.4443359375,5.1513671875,4.4189453125,4.3212890625,3.0029296875,2.4169921875,2.2216796875,2.0751953125,1.5380859375,2.2705078125,4.2724609375,6.5185546875,7.9833984375,8.0322265625,7.6416015625,8.0322265625,7.2509765625,7.0068359375,7.2998046875,6.7138671875,7.3974609375,6.4697265625,6.1767578125,5.6884765625,4.7119140625,4.1259765625,3.7841796875,3.0029296875,2.4169921875,2.9052734375,5.2001953125,7.7880859375,9.0087890625,9.3505859375,9.3017578125,9.1064453125,8.0322265625,7.4951171875,7.3974609375,7.0556640625,7.1533203125,7.2509765625,6.5673828125,6.0791015625,6.1767578125,5.2001953125,4.7119140625,4.0283203125,3.0517578125,2.3193359375,3.3935546875,5.8349609375,8.2763671875,8.4228515625,8.9111328125,8.8623046875,8.0322265625,7.3486328125,7.6904296875,7.4951171875,7.9345703125,7.0556640625,7.3974609375,6.3232421875,6.1279296875,5.5908203125,5.3466796875,4.7119140625,3.6865234375,3.1982421875,3.3935546875,5.8837890625,7.7392578125,8.0322265625,8.5693359375,8.4716796875,7.6904296875,7.0068359375,7.0068359375,7.3974609375,7.3486328125,7.3486328125,6.6162109375,6.0791015625,5.8349609375,5.0537109375,4.1748046875,3.0517578125,2.8076171875,1.5380859375,2.9541015625,5.5908203125,7.2998046875,8.3740234375,8.3740234375,7.3486328125,7.2998046875,6.1279296875,5.9326171875,6.2255859375,5.9814453125,5.5908203125,5.2978515625,4.8095703125,3.3935546875,3.6376953125,2.5634765625,2.0263671875,1.0009765625,0.5615234375,2.6123046875,5.2001953125,6.8603515625,7.1533203125,7.4462890625,7.9833984375,6.8603515625,5.6396484375,5.4931640625,5.7373046875,5.5908203125,5.2001953125,4.7607421875,4.2236328125,3.1982421875,2.8564453125,2.1240234375,1.0009765625,0.5126953125,0.1708984375,1.0009765625,3.5888671875,5.2490234375,5.9326171875,6.4697265625,5.5419921875,5.0048828125,4.0283203125,4.2724609375,3.7841796875,4.0283203125,3.4423828125,3.1005859375,1.8310546875,1.1962890625,1.0009765625,0.1708984375,-0.3662109375,-1.0986328125,-2.1240234375,-2.5634765625,0.2197265625,2.7099609375,3.6865234375,4.2724609375,3.2470703125,3.3935546875,2.4658203125,1.9775390625,1.3916015625,1.7822265625,1.4892578125,0.7080078125,0.5126953125,0.3173828125,-0.4150390625,-1.1474609375,-1.7333984375,-2.3681640625,-3.0517578125,-3.4912109375,-3.5400390625,-0.5126953125,1.7333984375,2.2216796875,1.9287109375,1.4892578125,0.9033203125,-0.3662109375,-0.8544921875,-0.3662109375,-0.1220703125,-0.8544921875,-1.2451171875,-1.6357421875,-2.3193359375,-3.1494140625,-4.0283203125,-4.1259765625,-5.2001953125,-5.1025390625,-5.3955078125,-2.9541015625,-0.6591796875,0.4150390625,0.9521484375,-0.0732421875,-0.5615234375,-1.6845703125,-2.3681640625,-1.9775390625,-2.5146484375,-2.4169921875,-2.2705078125,-2.2216796875,-2.8564453125,-3.3447265625,-3.8330078125,-4.7119140625,-5.9326171875,-6.5673828125,-7.2998046875,-5.4443359375,-3.1982421875,-1.0986328125,-0.7080078125,-0.5615234375,-0.8544921875,-1.3916015625,-1.8310546875,-3.0029296875,-3.0517578125,-2.6123046875,-3.5400390625,-3.6865234375,-4.3212890625,-4.8583984375,-5.1025390625,-5.5419921875,-6.5673828125,-6.8115234375,-7.0556640625,-7.2998046875,-5.5908203125,-3.1982421875,-1.8798828125,-1.2451171875,-1.0009765625,-1.8310546875,-1.9775390625,-2.5146484375,-3.1005859375,-3.1005859375,-2.8076171875,-3.1005859375,-3.6376953125,-4.4189453125,-4.6630859375,-5.3955078125,-6.1279296875,-6.3232421875,-6.7626953125,-6.9091796875,-7.8857421875,-5.1513671875,-2.5634765625,-1.3427734375,0.0732421875,-0.7080078125,-1.0498046875,-1.3427734375,-2.9052734375,-2.7099609375,-2.9541015625,-2.6123046875,-2.6123046875,-3.0029296875,-3.9306640625,-4.4677734375,-4.5166015625,-5.3955078125,-6.0791015625,-6.7138671875,-7.3486328125,-7.4951171875,-8.1787109375,-5.0048828125,-2.8076171875,-2.0263671875,-1.7822265625,-1.9287109375,-2.1240234375,-3.1494140625,-3.7841796875,-3.8818359375,-3.6865234375,-3.6865234375,-3.8330078125,-4.2724609375,-4.7607421875,-5.4931640625,-5.9326171875,-6.3232421875,-6.2255859375,-7.2021484375,-7.2509765625,-6.3720703125,-3.9794921875,-2.3681640625,-1.7822265625,-2.3193359375,-2.9541015625,-3.9794921875,-4.2236328125,-3.8330078125,-4.1259765625,-3.3935546875,-3.8818359375,-3.9794921875,-4.6142578125,-4.5166015625,-5.9814453125,-6.8603515625,-7.9345703125,-8.5205078125,-8.3251953125,-8.1298828125,-4.7119140625,-3.1982421875,-1.9775390625,-1.5869140625,-1.8310546875,-2.5146484375,-3.4423828125,-3.5400390625,-3.1982421875,-2.6123046875,-3.0029296875,-3.2470703125,-4.2724609375,-4.3701171875,-4.3701171875,-5.0537109375,-4.9560546875,-5.8349609375,-6.2744140625,-5.4931640625,-3.0029296875,-0.7568359375,0.1708984375,1.0009765625,1.5380859375,1.4892578125,1.0498046875,1.3427734375,1.4892578125,1.6845703125,2.2705078125,2.7587890625,1.9775390625,1.9287109375,1.5869140625,0.8056640625,-0.0732421875,-0.3173828125,-0.4638671875,-0.8056640625,1.0986328125,4.0283203125,6.1279296875,7.8369140625,8.2763671875,8.3740234375,8.0322265625,7.2509765625,7.4462890625,7.4462890625,7.2998046875,7.0556640625,6.6162109375,5.8349609375,4.8583984375,3.8330078125,2.4658203125,1.9287109375,0.8056640625,-0.3173828125,-1.2939453125,1.1474609375,3.4423828125,5.8349609375,6.7626953125,6.7626953125,5.6396484375,4.1748046875,3.3935546875,2.0751953125,1.7822265625,0.9033203125,-0.1220703125,-0.5615234375,-1.9287109375,-2.6123046875,-3.7841796875,-4.6630859375,-5.9814453125,-7.1044921875,-8.1298828125,-9.1552734375,-8.1298828125,-5.5419921875,-4.5166015625,-3.1005859375,-3.7841796875,-4.6630859375,-5.8349609375,-7.7880859375,-7.9345703125,-8.7158203125,-8.7646484375,-9.2041015625,-10.4736328125,-10.7666015625,-11.4013671875,-13.0615234375,-13.7451171875,-14.4287109375,-15.8447265625,-16.4306640625,-17.4072265625,-16.8701171875,-14.2333984375,-12.2802734375,-11.8408203125,-11.9873046875,-12.2802734375,-13.0615234375,-14.4775390625,-15.2099609375,-15.4541015625,-15.7470703125,-16.1376953125,-16.2841796875,-16.8212890625,-17.2607421875,-18.0419921875,-19.3603515625,-19.8486328125,-20.6787109375,-21.6552734375,-21.8994140625,-19.3115234375,-16.8701171875,-16.4306640625,-16.3330078125,-16.4794921875,-17.3583984375,-17.7001953125,-18.8232421875,-19.1650390625,-19.3115234375,-19.1650390625,-19.5556640625,-19.8974609375,-20.4345703125,-21.3623046875,-21.8505859375,-22.1923828125,-23.3642578125,-23.7548828125,-23.8037109375,-21.8017578125,-19.4580078125,-18.3349609375,-18.2373046875,-18.5302734375,-18.5791015625,-19.7998046875,-20.0439453125,-20.2392578125,-19.8974609375,-20.6787109375,-20.1904296875,-20.7763671875,-21.2646484375,-21.7041015625,-22.5341796875,-22.7783203125,-23.5107421875,-23.9990234375,-23.3642578125,-21.3134765625,-18.6767578125,-18.3349609375,-17.7490234375,-17.9931640625,-17.8955078125,-19.1162109375,-18.1396484375,-18.3837890625,-18.3837890625,-18.4326171875,-18.5302734375,-19.0673828125,-19.2138671875,-19.7509765625,-20.3369140625,-20.8251953125,-21.5087890625,-21.7041015625,-20.2880859375,-17.2119140625,-15.9912109375,-15.0634765625,-14.5751953125,-14.4287109375,-15.0146484375,-14.9658203125,-15.0146484375,-15.5517578125,-14.4775390625,-14.5263671875,-14.5751953125,-15.1123046875,-15.3076171875,-15.5517578125,-15.7470703125,-16.3330078125,-17.0166015625,-17.0166015625,-16.4794921875,-13.3544921875,-11.7431640625,-10.9130859375,-10.0341796875,-10.6689453125,-10.5712890625,-11.4501953125,-11.4501953125,-10.9619140625,-11.0595703125,-10.9130859375,-11.0107421875,-11.6943359375,-11.7431640625,-12.1826171875,-12.8662109375
PPG_subj_05,25,M,N,Non-diabetic,95,34.9135,Earlobe,0.185546875,0.185546875,0.185546875,0.185546875,0.185546875,0.185546875,85.3369140625,137.6318359375,137.3876953125,137.0458984375,138.0224609375,139.5849609375,140.1708984375,141.0498046875,140.3662109375,140.4150390625,139.7802734375,139.4384765625,138.9990234375,139.2431640625,138.7548828125,138.7060546875,138.6572265625,138.9501953125,138.0712890625,137.2412109375,136.7529296875,136.2646484375,135.3857421875,135.4833984375,135.1416015625,136.2158203125,138.2177734375,138.6083984375,138.8037109375,138.9501953125,137.9248046875,137.9736328125,137.1923828125,137.0947265625,137.0458984375,136.9482421875,137.6318359375,136.6552734375,136.2646484375,135.8251953125,134.9951171875,134.6044921875,133.5791015625,133.3349609375,133.0908203125,133.1884765625,133.9697265625,135.3369140625,136.4599609375,136.7041015625,136.4599609375,136.7529296875,135.7763671875,134.4580078125,133.8232421875,133.8232421875,132.7001953125,132.0654296875,131.2353515625,131.3818359375,128.8916015625,128.9404296875,128.1591796875,127.4755859375,126.9384765625,126.6943359375,125.6689453125,124.9853515625,126.4990234375,127.0361328125,128.1591796875,128.0126953125,128.4033203125,128.5986328125,128.4033203125,127.6220703125,127.3291015625,128.3056640625,128.4033203125,128.7451171875,127.1826171875,126.6943359375,125.8642578125,124.9365234375,124.4970703125,123.8134765625,124.4482421875,123.9599609375,124.4482421875,125.8642578125,127.0849609375,127.5244140625,127.8173828125,126.7431640625,125.3271484375,125.2294921875,124.3505859375,124.3994140625,123.2763671875,123.4228515625,122.9833984375,122.3486328125,120.9814453125,119.2236328125,117.2705078125,115.3173828125,113.4130859375,111.8505859375,111.2646484375,111.7041015625,112.3388671875,111.3134765625,111.1669921875,109.7509765625,110.4345703125,109.9462890625,110.8251953125,111.1669921875,111.7041015625,113.0224609375,112.2412109375,112.0458984375,111.1669921875,111.4111328125,110.1416015625,109.8974609375,108.8232421875,108.6279296875,108.7255859375,110.1904296875,111.0205078125,112.3388671875,112.1435546875,112.5341796875,112.8759765625,111.3134765625,110.4345703125,110.5322265625,110.3369140625,110.9228515625,109.7998046875,109.9462890625,109.1650390625,108.6279296875,107.9931640625,107.6513671875,106.3818359375,114.0966796875,113.6083984375,114.1455078125,115.0732421875,116.7333984375,117.2216796875,117.2216796875,116.9287109375,116.8310546875,115.8544921875,115.5615234375,115.7568359375,114.9267578125,115.1220703125,114.9267578125,114.6337890625,114.4873046875,113.4619140625,113.4130859375,112.5341796875,111.8505859375,111.4599609375,111.0693359375,111.9482421875,113.2177734375,114.2919921875,115.7080078125,115.1220703125,115.0732421875,114.6337890625,113.5595703125,113.8525390625,113.7060546875,113.7060546875,113.6083984375,113.3642578125,113.4619140625,112.7294921875,111.4111328125,111.2646484375,110.0439453125,110.0927734375,109.8486328125,109.1162109375,110.7275390625,111.7529296875,113.1689453125,112.8271484375,112.9248046875,112.8271484375,112.1435546875,111.3134765625,110.4833984375,111.2158203125,111.0205078125,111.1669921875,111.1669921875,111.0205078125,110.5322265625,109.3603515625,109.3115234375,108.4326171875,108.1396484375,108.2861328125,109.2138671875,110.2392578125,111.6552734375,112.5341796875,112.8271484375,111.9482421875,110.9716796875,110.8251953125,110.2880859375,111.0205078125,110.3369140625,110.2880859375,110.4833984375,109.9462890625,109.6044921875,109.2626953125,109.1162109375,107.9931640625,107.7001953125,107.6513671875,108.4326171875,109.4580078125,111.3134765625,111.9482421875,112.3876953125,112.0947265625,111.6552734375,111.3134765625,111.4111328125,111.7041015625,112.3388671875,112.0458984375,112.4365234375,111.8505859375,111.3623046875,111.3134765625,110.9716796875,110.8251953125,110.1416015625,109.5068359375,109.7998046875,110.8740234375,112.8271484375,113.8525390625,114.1943359375,115.0244140625,114.9267578125,114.3896484375,113.9013671875,113.8037109375,113.9501953125,113.9501953125,113.9013671875,113.8525390625,114.1455078125,113.3642578125,113.1689453125,112.3388671875,111.8017578125,111.6064453125,111.8994140625,111.1181640625,112.7783203125,113.6083984375,115.3662109375,115.4150390625,115.3173828125,115.8544921875,115.2197265625,114.5361328125,115.0732421875,115.0732421875,116.0498046875,115.3173828125,114.5849609375,114.8779296875,114.4384765625,114.2431640625,113.3642578125,113.1201171875,112.7294921875,111.8505859375,112.3388671875,113.6083984375,114.8291015625,115.9033203125,115.5126953125,115.7568359375,115.4150390625,114.8291015625,114.5361328125,114.3896484375,114.9755859375,114.8779296875,114.8291015625,113.8037109375,113.9013671875,113.3154296875,112.8271484375,112.3388671875,111.5087890625,111.6064453125,111.1181640625,111.4111328125,113.0712890625,114.2919921875,114.8291015625,115.1220703125,114.6337890625,114.2919921875,113.9013671875,113.7060546875,113.9990234375,113.7060546875,113.5595703125,113.7060546875,113.5107421875,112.6806640625,112.3388671875,112.3388671875,111.1669921875,111.2158203125,110.2880859375,110.9716796875,112.2900390625,113.5595703125,114.4873046875,115.4150390625,114.9267578125,114.7802734375,114.6337890625,113.5595703125,113.9501953125,113.5595703125,113.9501953125,113.9501953125,113.7060546875,113.3154296875,113.4130859375,112.8271484375,112.1923828125,112.2412109375,111.2158203125,110.7275390625,111.7041015625,112.4365234375,113.7060546875,114.9267578125,115.2685546875,115.2685546875,115.3662109375,114.5849609375,114.0966796875,114.4873046875,114.8291015625,114.8779296875,115.4150390625,114.6826171875,113.6572265625,113.6083984375,113.7548828125,113.0712890625,112.8271484375,111.6552734375,111.9482421875,110.9716796875,111.8994140625,113.0224609375,114.0966796875,115.1708984375,115.3173828125,115.0732421875,115.4638671875,114.7314453125,114.5849609375,114.6826171875,114.5849609375,114.5361328125,114.7802734375,114.2431640625,113.5595703125,113.6572265625,112.1923828125,113.0224609375,112.0458984375,111.3134765625,111.5576171875,110.6787109375,111.3623046875,112.0947265625,113.7060546875,114.0966796875,114.5361328125,113.6572265625,114.0478515625,113.6572265625,112.4853515625,113.1201171875,113.6572265625,113.0712890625,112.8271484375,112.6806640625,112.3876953125,112.0947265625,111.5087890625,110.8251953125,110.5322265625,109.8974609375,109.6044921875,109.7998046875,109.7509765625,111.0693359375,112.3388671875,112.3876953125,112.5830078125,112.0458984375,111.2646484375,110.7275390625,110.9228515625,111.1181640625,111.4599609375,110.6787109375,110.7763671875,110.8740234375,110.1904296875,110.1416015625,109.6533203125,108.7255859375,108.6279296875,107.4072265625,106.8701171875,108.0419921875,108.5302734375,109.9951171875,109.8486328125,110.8740234375,110.5810546875,110.8740234375,109.7998046875,109.6533203125,109.5068359375,109.6044921875,109.6044921875,109.7509765625,109.0673828125,109.0185546875,108.7255859375,108.1884765625,107.8955078125,107.1630859375,106.0400390625,106.7236328125,105.6982421875,105.6494140625,107.6513671875,109.0185546875,109.4091796875,109.5068359375,109.4580078125,109.7509765625,109.2138671875,108.5791015625,109.5068359375,109.1162109375,109.0673828125,108.9697265625,108.4814453125,108.5302734375,107.6025390625,107.3095703125,107.1142578125,106.2841796875,105.8935546875,105.9912109375,106.0888671875,106.3818359375,107.4560546875,108.9697265625,109.1162109375,109.3603515625,109.2138671875,109.2138671875,108.6279296875,108.5791015625,108.4326171875,108.6279296875,108.8232421875,108.1884765625,108.1884765625,107.8955078125,107.3583984375,106.5771484375,106.2353515625,105.8935546875,105.5029296875,104.9658203125,105.3564453125,106.2841796875,108.0419921875,108.7744140625,109.1650390625,108.8232421875,107.9443359375,107.0166015625,107.3583984375,108.1396484375,107.7978515625,107.7490234375,107.2607421875,107.0166015625,106.7724609375,107.1142578125,106.3818359375,105.6005859375,105.2099609375,104.1845703125,104.3310546875,104.2822265625,105.4052734375,106.7236328125,107.2119140625,107.8466796875,107.5048828125,107.3095703125,106.1376953125,106.3330078125,106.4306640625,106.2353515625,106.1865234375,106.8701171875,105.7958984375,106.0400390625,105.4052734375,105.2099609375,104.1357421875,103.9892578125,103.3544921875,103.6474609375,105.6005859375,106.1865234375,106.6748046875,106.9189453125,106.5771484375,106.7724609375,105.8935546875,106.1376953125,105.6982421875,105.6982421875,105.9423828125,106.3818359375,105.6982421875,105.4541015625,105.3076171875,104.5263671875,104.4287109375,104.0380859375,102.7197265625,103.3544921875,104.3798828125,105.7470703125,106.6259765625,106.8701171875,106.5283203125,106.6748046875,106.7236328125,105.8447265625,106.0400390625,106.6259765625,106.4794921875,106.5771484375,105.7470703125,105.9423828125,105.6005859375,105.6005859375,105.2587890625,104.1357421875,104.1845703125,103.2568359375,103.8427734375,106.2353515625,106.9189453125,107.5537109375,107.5537109375,107.5537109375,106.9677734375,106.8212890625,106.3330078125,106.9677734375,106.7724609375,106.7236328125,107.0654296875,106.7236328125,105.7958984375,105.6982421875,105.7470703125,105.2587890625,104.4287109375,104.3310546875,103.6962890625,103.9892578125,104.5263671875,106.8212890625,107.2607421875,107.9443359375,107.6513671875,107.3095703125,106.4794921875,106.3330078125,105.9912109375,106.7236328125,107.1630859375,106.9677734375,106.6259765625,106.1865234375,105.7958984375,106.0400390625,105.4052734375,104.9169921875,103.8916015625,104.0869140625,104.1845703125,105.2587890625,106.5283203125,106.6748046875,107.6025390625,107.2119140625,106.2841796875,106.1376953125,106.2353515625,106.6748046875,105.8447265625,106.3330078125,105.8935546875,105.6005859375,105.6005859375,104.4775390625,104.6240234375,104.0869140625,103.6474609375,103.3056640625,102.8173828125,102.8662109375,104.4287109375,105.5029296875,105.7958984375,105.8935546875,105.6494140625,105.1611328125,104.6728515625,104.6728515625,104.7705078125,104.8681640625,104.7216796875,104.3798828125,104.4287109375,103.8427734375,103.3056640625,103.0126953125,102.3779296875,101.7919921875,101.6455078125,102.2314453125,102.8662109375,103.4521484375,104.2822265625,103.7451171875,103.9404296875,103.0615234375,102.3779296875,102.4755859375,102.3779296875,102.5244140625,102.2314453125,102.4267578125,101.6455078125,101.9873046875,101.0107421875,101.2548828125,100.5712890625,100.1318359375,99.2529296875,100.0341796875,101.5478515625,102.1337890625,102.5732421875,102.2314453125,102.1337890625,101.3525390625,100.9130859375,101.5966796875,101.4013671875,101.3525390625,101.4013671875,101.1572265625,100.6689453125,100.8154296875,100.4248046875,99.2041015625,99.0576171875,98.5693359375,97.9833984375,99.3994140625,100.8154296875,101.1572265625,101.8408203125,102.1826171875,101.8408203125,101.1572265625,100.7177734375,100.3759765625,100.5224609375,100.6689453125,100.5224609375,100.5224609375,100.2294921875,99.5458984375,100.0341796875,99.5947265625,98.7646484375,98.4228515625,98.1298828125,98.6669921875,100.2783203125,101.3037109375,101.5478515625,102.0361328125,101.2548828125,101.0595703125,101.0107421875,101.3037109375,101.7919921875,102.1826171875,101.4990234375,101.4501953125,101.0107421875,101.0107421875,100.3271484375,100.0341796875,99.7900390625,98.9111328125,98.6181640625,98.8623046875,100.4248046875,101.2060546875,102.4267578125,102.6708984375,101.4501953125,101.9873046875,100.8642578125,101.7919921875,101.6455078125,101.8408203125,101.8408203125,101.7431640625,101.9873046875,101.5966796875,101.0595703125,100.4248046875,99.9853515625,100.1806640625,99.8876953125,99.6923828125,99.6923828125,100.2783203125,102.0849609375,102.4267578125,102.7197265625,102.4267578125,102.1337890625,102.0849609375,101.8408203125,102.1337890625,102.5732421875,102.2802734375,101.6943359375,101.8408203125,101.6455078125,101.1572265625,100.7666015625,100.5712890625,100.2783203125,99.8876953125,99.3505859375,99.7412109375,100.8154296875,102.3779296875,101.8896484375,102.0849609375,101.5966796875,101.1083984375,101.0107421875,101.4990234375,101.3525390625,101.4501953125,101.8408203125,101.4990234375,101.0107421875,100.9130859375,100.2783203125,100.1806640625,99.7900390625,98.9111328125,98.7158203125,99.5458984375,100.1806640625,101.4013671875,101.7431640625,102.2314453125,102.0361328125,101.4990234375,101.7431640625,100.9130859375,101.8408203125,101.6943359375,101.7919921875,101.3525390625,101.2548828125,100.8154296875,100.3271484375,100.4248046875,99.5458984375,99.4482421875,99.3017578125,99.3017578125,100.2294921875,101.6455078125,102.1337890625,102.4267578125,102.9150390625,102.5244140625,102.8173828125,102.8662109375,102.9150390625,102.7197265625,103.0615234375,103.5986328125,103.0126953125,102.5244140625,102.7197265625,102.3291015625,101.4013671875,101.4990234375,101.6943359375,100.9130859375,101.7431640625,102.5732421875,103.8427734375,104.9169921875,104.7705078125,105.4052734375,105.2587890625,104.4287109375,104.4775390625,105.3564453125,105.4541015625,105.4541015625,105.4541015625,105.0634765625,104.7705078125,104.8193359375,104.0380859375,104.2333984375,103.4521484375,103.1103515625,102.8662109375,103.1103515625,104.8681640625,105.6005859375,105.8447265625,106.4306640625,105.5029296875,105.3076171875,105.5029296875,105.6005859375,105.5517578125,106.1376953125,105.8935546875,105.5029296875,104.7216796875,104.7705078125,104.1845703125,103.8916015625,103.5498046875,103.0615234375,102.3291015625,102.7685546875,103.9892578125,105.0146484375,105.5517578125,105.6982421875,105.3564453125,104.2822265625,104.0380859375,104.3798828125,104.4287109375,104.6240234375,104.9169921875,104.0380859375,103.7939453125,103.3056640625,103.5009765625,102.3779296875,101.7919921875,101.6943359375,101.3037109375,101.5478515625,102.6708984375,103.4521484375,103.7451171875,103.9892578125,103.3056640625,103.4521484375,103.1591796875,102.6220703125,102.8173828125,103.3544921875,103.3544921875,102.4267578125,102.8662109375,102.1826171875,101.5966796875,101.6943359375,100.6201171875,100.1806640625,99.9853515625,100.3271484375,101.9384765625,102.5244140625,102.7197265625,103.1591796875,102.5244140625,102.6708984375,102.7197265625,102.4267578125,102.2314453125,102.2314453125,102.4755859375,101.9384765625,100.9130859375,100.5712890625,100.5224609375,100.3759765625,99.4482421875,99.3017578125,98.7158203125,99.3994140625,100.1318359375,100.8154296875,101.6455078125,101.5966796875,101.4013671875,101.4501953125,101.1572265625,101.1083984375,101.0595703125,100.7666015625,100.7666015625,100.4736328125,100.4248046875,100.0830078125,99.4482421875,98.9599609375,98.3251953125,98.2275390625,97.6416015625,97.8369140625,98.2763671875,99.0087890625,99.9365234375,99.6923828125,99.9853515625,99.6923828125,99.3017578125,99.1552734375,99.3505859375,99.3994140625,98.9599609375,99.1064453125,98.6181640625,98.3740234375,97.8857421875,97.1533203125,97.4462890625,96.3232421875,96.2255859375,95.4931640625,95.6396484375,96.5673828125,97.4951171875,97.4462890625,98.1787109375,97.5927734375,97.5439453125,96.9580078125,96.4697265625,96.0791015625,96.1767578125,95.9814453125,96.5673828125,95.9326171875,96.1767578125,95.3955078125,94.8583984375,94.7119140625,93.7353515625,93.5888671875,93.2958984375,94.4189453125,95.2978515625,96.1279296875,96.6162109375,96.5673828125,96.1279296875,95.2978515625,95.6884765625,95.3466796875,95.5419921875,95.4443359375,95.2978515625,95.2978515625,95.0537109375,94.5654296875,93.8330078125,94.0283203125,93.9794921875,92.8076171875,92.0751953125,92.1728515625,93.8330078125,94.5166015625,95.4931640625,96.0302734375,95.5908203125,95.8349609375,95.6396484375,95.3466796875,95.4931640625,95.2978515625,95.3466796875,95.2490234375,95.1025390625,95.2978515625,94.8583984375,94.3212890625,94.0283203125,93.5400390625,92.8076171875,92.9541015625,93.4423828125,94.0771484375,95.4443359375,95.4443359375,95.8349609375,95.6396484375,95.6396484375,95.2490234375,95.5908203125,95.1513671875,95.4443359375,95.2978515625,95.2490234375,95.1025390625,95.1025390625,94.6142578125,94.0771484375,94.4677734375,93.8330078125,92.8564453125,92.9541015625,93.1005859375,94.0771484375,95.1025390625,95.7373046875,95.8837890625,95.8837890625,95.8349609375,94.7119140625,94.5166015625,94.9072265625,94.4189453125,95.1513671875,94.6630859375,95.2490234375,94.7607421875,94.0771484375,94.1748046875,93.1005859375,92.4169921875,92.1240234375,92.3193359375,93.2958984375,93.8330078125,95.0537109375,94.8095703125,94.9560546875,94.7119140625,94.6142578125,94.1748046875,94.2236328125,94.2236328125,94.3701171875,93.9794921875,94.3701171875,93.7841796875,93.7353515625,93.1982421875,92.8076171875,91.7822265625,91.7822265625,91.4404296875,91.6845703125,92.8076171875,93.7841796875,94.2724609375,94.8583984375,94.5166015625,93.9794921875,93.8330078125,94.2236328125,93.6865234375,94.0283203125,93.9306640625,93.2958984375,93.1982421875,92.9052734375,92.9541015625,92.6123046875,91.6357421875,91.3427734375,91.1962890625,90.6591796875,91.6845703125,92.4658203125,93.1982421875,94.0283203125,94.0283203125,93.3935546875,93.1982421875,92.8564453125,93.4912109375,93.4423828125,93.6865234375,92.8076171875,92.8564453125,92.4169921875,91.4892578125,91.3427734375,91.3916015625,90.3662109375,90.5615234375,89.9267578125,90.4638671875,91.1474609375,93.0517578125,92.0263671875,92.0263671875,91.9775390625,91.1962890625,91.2939453125,91.7822265625,91.3427734375,91.5380859375,91.5380859375,91.8310546875,90.7568359375,90.5126953125,90.0732421875,89.2431640625,88.9990234375,88.7060546875,88.4619140625,88.4619140625,89.7314453125,90.5615234375,91.0009765625,90.3662109375,90.6103515625,89.5849609375,89.2919921875,89.3408203125,90.1708984375,89.1943359375,89.6337890625,89.3896484375,89.0966796875,88.6572265625,87.7294921875,87.6318359375,87.3876953125,86.5087890625,86.7041015625,87.3388671875,87.8271484375,88.9990234375,89.3896484375,89.0478515625,89.3896484375,88.8037109375,88.2666015625,88.3642578125,89.1455078125,88.2666015625,88.6083984375,88.4619140625,87.7294921875,87.5830078125,86.8505859375,86.7529296875,86.6552734375,85.6298828125,86.3134765625,86.0693359375,87.2412109375,88.3642578125,88.8525390625,88.6572265625,88.9013671875,88.3154296875,87.4853515625,87.7783203125,88.3154296875,88.3642578125,88.1689453125,87.8271484375,87.4365234375,86.7529296875,86.6064453125,86.4111328125,85.9716796875,85.5322265625,84.9462890625,85.0439453125,85.7275390625,87.1435546875,87.2412109375,87.6806640625,87.8759765625,87.2900390625,86.5087890625,85.7763671875,86.1669921875,86.6064453125,86.3134765625,85.9228515625,86.3623046875,85.6787109375,85.0439453125,84.6533203125,84.3603515625,84.3115234375,83.3349609375,83.1884765625,83.2861328125,84.5556640625,85.2880859375,85.5810546875,85.2880859375,85.5322265625,84.5556640625,84.4091796875,84.1650390625,84.3603515625,84.5068359375,84.6533203125,84.2626953125,84.0185546875,82.7490234375,82.9931640625,81.8212890625,82.1142578125,81.4306640625,81.0888671875,82.0166015625,83.4814453125,83.9697265625,84.5068359375,84.3115234375,84.1650390625,83.6767578125,82.8466796875,83.3837890625,83.3837890625,83.5791015625,83.3837890625,83.1884765625,82.6513671875,82.3095703125,82.1142578125,81.9189453125,81.6748046875,81.1376953125,81.2841796875,81.6748046875,83.0908203125,84.1162109375,84.1650390625,85.0439453125,84.6533203125,84.0185546875,83.7744140625,83.9208984375,84.5556640625,83.5302734375,84.7509765625,83.9697265625,83.8232421875,83.9208984375,82.9931640625,82.6513671875,82.9931640625,82.6513671875,82.4560546875,82.6513671875,82.9931640625,84.0185546875,85.1904296875,85.6298828125,85.4345703125,85.1416015625,84.8486328125,84.9951171875,85.0439453125,85.1904296875,85.3369140625,85.3369140625,84.9951171875,84.8486328125,84.9462890625,84.1650390625,84.1650390625,84.3115234375,83.6767578125,83.2373046875,83.7744140625,84.4580078125,85.3857421875,86.1669921875,85.8251953125,85.8251953125,85.3857421875,84.7021484375,85.3857421875,85.1416015625,85.4345703125,84.9951171875,85.0439453125,84.6044921875,84.8486328125,84.2138671875,83.4814453125,83.2373046875,82.8466796875,82.7490234375,83.5791015625,84.6044921875,84.9951171875,85.5322265625,85.7275390625,85.0439453125,84.3603515625,83.7255859375,84.4580078125,84.4091796875,84.6044921875,84.4580078125,84.2138671875,84.0185546875,83.9697265625,83.3349609375,82.7490234375,82.7490234375,82.3095703125,82.8466796875,83.3349609375,84.7021484375,85.4345703125,85.3857421875,85.2880859375,84.5068359375,84.0673828125,84.2626953125,84.3603515625,83.7744140625,84.2138671875,84.1162109375,83.7744140625,83.7255859375,83.4814453125,83.6767578125,82.6025390625,82.2119140625,82.4072265625,83.2861328125,83.3837890625,84.2626953125,84.9951171875,85.2392578125,85.0439453125,84.9951171875,84.7021484375,84.5556640625,84.7021484375,84.7998046875,85.2880859375,84.5068359375,85.0927734375,84.5556640625,83.8720703125,83.4814453125,83.2373046875,83.6767578125,82.8955078125,83.1884765625,84.1162109375,84.9951171875,85.2392578125,85.1904296875,85.4833984375,84.7509765625,85.0927734375,84.3603515625,85.3369140625,85.2392578125,85.1904296875,84.8486328125,84.7998046875,84.4580078125,84.3603515625,83.8720703125,83.7255859375,83.0419921875,82.7001953125,82.9443359375,83.5791015625,84.1650390625,85.0439453125,84.4580078125,85.2880859375,84.7998046875,84.5068359375,84.1162109375,83.8232421875,84.3603515625,84.6533203125,84.3115234375,83.5791015625,82.9931640625,82.9931640625,82.8466796875,82.6513671875,81.8212890625,81.7236328125,81.3818359375,81.4794921875,83.2861328125,83.0908203125,83.6279296875,83.5791015625,82.9443359375,82.9443359375,82.5048828125,83.0419921875,82.6513671875,82.8466796875,82.4560546875,82.0166015625,81.8212890625,81.5771484375,80.8447265625,80.7958984375,80.5517578125,79.9169921875,79.8193359375,81.4306640625,82.4072265625,82.4072265625,82.5048828125,82.7001953125,82.2607421875,82.3583984375,81.4794921875,82.3095703125,82.0654296875,82.0166015625,82.5048828125,82.1142578125,81.8701171875,81.3330078125,81.1376953125,80.6005859375,80.0146484375,80.3564453125,80.1123046875,80.1611328125,81.3330078125,81.9677734375,83.1396484375,82.4072265625,83.2861328125,82.3583984375,82.3095703125,82.6513671875,82.5537109375,83.1396484375,82.9443359375,82.5048828125,82.7978515625,82.1142578125,81.6259765625,81.2353515625,80.6982421875,80.8447265625,80.3076171875,79.9169921875,80.4052734375,81.9189453125,82.0166015625,83.0908203125,83.3837890625,83.0908203125,82.4072265625,82.4072265625,82.6025390625,82.9443359375,82.3095703125,82.7001953125,81.8701171875,82.7001953125,81.9189453125,82.2607421875,80.9423828125,81.3818359375,80.4052734375,80.0146484375,80.0634765625,80.6494140625,81.5283203125,82.2607421875,82.7001953125,82.6025390625,82.9443359375,82.2607421875,81.9189453125,82.4560546875,82.1142578125,81.9677734375,81.9189453125,81.1376953125,81.4794921875,81.3818359375,80.3564453125,80.9423828125,80.0634765625,79.7705078125,78.9404296875,79.0869140625,79.4287109375,80.7470703125,81.2353515625,81.4306640625,81.1865234375,80.5029296875,80.3076171875,80.6005859375,80.5029296875,80.6494140625,80.1611328125,80.5029296875,79.6728515625,79.3310546875,79.1845703125,78.9892578125,78.3544921875,78.0126953125,77.8662109375,77.2314453125,77.9150390625,78.3544921875,79.8193359375,79.7705078125,80.3076171875,80.4052734375,80.1611328125,79.6728515625,79.8193359375,79.3310546875,79.4287109375,79.1357421875,78.6962890625,79.5263671875,78.6962890625,78.7939453125,78.3056640625,78.7451171875,77.7197265625,77.3291015625,77.0849609375,77.3291015625,78.9892578125,79.7216796875,80.6005859375,80.9912109375,80.4541015625,81.0400390625,79.9169921875,79.7216796875,80.0146484375,79.6728515625,79.9169921875,79.4775390625,79.4287109375,79.5263671875,79.3310546875,79.4775390625,78.9892578125,78.6962890625,78.3056640625,77.4267578125,77.3779296875,78.7451171875,79.6728515625,80.1123046875,80.5029296875,81.1865234375,80.6494140625,80.7958984375,80.0146484375,79.7216796875,80.1123046875,80.4541015625,80.4052734375,80.4541015625,80.1123046875,79.6728515625,79.3310546875,79.0869140625,78.8427734375,78.1591796875,78.5498046875,77.2802734375,77.4267578125,77.9638671875,79.4775390625,79.7705078125,79.9658203125,79.7705078125,79.5751953125,78.8427734375,78.8427734375,79.3798828125,79.2333984375,79.1845703125,79.2333984375,78.3544921875,78.6962890625,78.1591796875,77.5244140625,77.1826171875,77.1337890625,76.4990234375,75.9619140625,75.9130859375,76.2060546875,76.9873046875,77.9638671875,78.3056640625,77.6708984375,78.1103515625,77.8173828125,76.5966796875,76.7919921875,76.8896484375,76.6943359375,76.8408203125,76.7919921875,76.4990234375,75.4736328125,75.2294921875,75.1318359375,74.8388671875,74.0576171875,74.1064453125,73.9111328125,74.8388671875,75.8154296875,76.1083984375,76.7919921875,76.2060546875,75.6689453125,74.9853515625,74.9365234375,74.7412109375,74.4970703125,74.9365234375,74.7412109375,74.8388671875,74.3994140625,74.3017578125,73.4228515625,73.2275390625,72.0068359375,72.2998046875,71.9580078125,72.8369140625,73.4228515625,74.6923828125,74.9853515625,74.9365234375,75.2783203125,73.9111328125,73.9111328125,74.0087890625,73.8623046875,75.0830078125,74.7412109375,75.0341796875,74.3505859375,73.9599609375,74.3017578125,73.1298828125,72.8369140625,72.5927734375,72.6904296875,72.1533203125,73.5693359375,74.4482421875,75.4736328125,75.3759765625,74.8876953125,74.9365234375,74.3017578125,74.7412109375,74.9365234375,75.2294921875,75.2294921875,74.9853515625,74.9365234375,74.5947265625,74.2529296875,74.3505859375,73.9111328125,73.7158203125,73.0322265625,72.9833984375,73.6181640625,74.6923828125,75.9619140625,75.5712890625,76.0107421875,75.6201171875,75.1806640625,74.9365234375,74.6923828125,75.4736328125,75.4736328125,74.9365234375,75.3759765625,75.0341796875,74.6435546875,73.9111328125,74.0087890625,73.2763671875,73.4228515625,72.8369140625,72.7880859375,73.8134765625,75.5224609375,75.0341796875,75.0341796875,75.4248046875,74.6923828125,74.9365234375,74.3994140625,75.1806640625,74.2041015625,74.3017578125,74.1552734375,74.1552734375,73.4716796875,73.6181640625,73.2275390625,73.0322265625,72.3486328125,72.5439453125,71.7138671875,72.4951171875,73.7646484375,74.1552734375,74.0087890625,74.0087890625,73.7158203125,73.3740234375,73.1787109375,73.0810546875,73.2275390625,73.0810546875,73.4228515625,72.5927734375,72.8857421875,72.1044921875,72.1533203125,71.0791015625,71.5673828125,71.2744140625,71.3232421875,72.8369140625,73.4716796875,73.5693359375,73.3740234375,73.6669921875,73.2763671875,72.6416015625,73.2275390625,72.7392578125,72.5927734375,73.1298828125,72.9345703125,72.5927734375,72.6416015625,72.0556640625,72.0068359375,71.1767578125,71.1767578125,70.8837890625,70.8349609375,72.1533203125,73.4716796875,72.8857421875,73.8623046875,73.7158203125,73.9599609375,73.2763671875,73.2275390625,73.1298828125,73.6181640625,73.4716796875,73.9111328125,73.4716796875,73.2275390625,73.0322265625,72.6904296875,72.1044921875,72.2998046875,71.6650390625,71.9580078125,72.4951171875,74.2529296875,74.6435546875,74.5947265625,74.8876953125,74.8876953125,74.7412109375,73.9111328125,74.3017578125,74.8876953125,74.3994140625,74.6435546875,74.2041015625,74.2041015625,73.6669921875,74.1064453125,73.8134765625,73.6181640625,73.1787109375,72.7392578125,72.2998046875,72.0068359375,73.0322265625,74.6435546875,74.5458984375,75.0341796875,75.5224609375,74.7412109375,74.6923828125,74.6435546875,74.6923828125,74.6435546875,74.5458984375,74.7412109375,74.4482421875,74.1064453125,73.7646484375,73.6181640625,73.1787109375,72.9833984375,72.7880859375,71.7138671875,71.3232421875,72.7880859375,73.3251953125,75.0830078125,74.7412109375,74.8876953125,74.3994140625,74.0087890625,74.0576171875,74.1064453125,74.4482421875,74.0576171875,74.1552734375,73.5693359375,73.3251953125,73.1298828125,72.8857421875,72.6416015625,72.2998046875,71.7626953125,71.5185546875,71.4208984375,71.6162109375,73.5693359375,74.0087890625,74.3505859375,73.7646484375,74.1064453125,73.7646484375,73.4716796875,73.7158203125,73.6669921875,73.8134765625,73.5693359375,74.0576171875,73.4716796875,73.0322265625,72.5439453125,72.2998046875,72.0068359375,71.6162109375,71.1767578125,70.7861328125,70.9326171875,71.4208984375,72.4462890625,73.0810546875,73.6669921875,73.1787109375,72.9833984375,72.7392578125,72.5927734375,73.2275390625,73.2763671875,72.9345703125,72.9833984375,72.4951171875,72.0068359375,72.4951171875,71.2744140625,71.1767578125,70.5908203125,70.2490234375,70.0537109375,69.4677734375,69.4677734375,70.3466796875,71.3720703125,71.6650390625,72.3486328125,72.6416015625,72.0068359375,71.5185546875,71.3720703125,71.3720703125,71.3720703125,71.3232421875,71.1279296875,71.1279296875,70.1513671875,70.2978515625,70.1025390625,69.2724609375,69.2724609375,68.0029296875,68.4912109375,68.1494140625,68.1982421875,68.9794921875,69.9072265625,70.5419921875,70.5908203125,70.5419921875,69.5654296875,68.3935546875,68.8818359375,69.5654296875,69.8583984375,69.7119140625,69.7607421875,68.9306640625,68.2470703125,68.1494140625,68.1494140625,67.4169921875,66.9775390625,67.2216796875,66.2939453125,66.4892578125,67.3193359375,68.3447265625,69.4189453125,68.8330078125,69.4189453125,68.0029296875,67.6123046875,68.0517578125,67.8564453125,67.7099609375,68.0517578125,67.6123046875,67.8076171875,67.1728515625,67.1240234375,66.5869140625,66.3427734375,66.2451171875,65.3662109375,65.6591796875,66.7822265625,67.9052734375,68.7841796875,68.8330078125,69.0771484375,68.3447265625,67.9541015625,67.8564453125,68.1982421875,68.4912109375,68.1494140625,68.8330078125,67.9052734375,67.4658203125,67.4169921875,67.4169921875,66.9775390625,66.5869140625,66.0009765625,66.5380859375,67.1240234375,68.1494140625,68.9306640625,69.5166015625,69.4677734375,69.6630859375,69.1748046875,69.3701171875,69.4677734375,68.9794921875,69.5166015625,70.2490234375,69.5166015625,69.1259765625,68.9306640625,69.1259765625,68.5400390625,68.1005859375,67.6611328125,67.5146484375,68.8330078125,69.5166015625,70.3466796875,71.6650390625,72.5439453125,72.4951171875,72.3974609375,72.1044921875,72.1533203125,72.6416015625,72.5439453125,72.8369140625,73.0322265625,72.6416015625,72.5927734375,71.8603515625,72.0556640625,71.4697265625,71.4208984375,71.4697265625,71.8603515625,70.7861328125,71.6650390625,72.6416015625,74.3505859375,74.2529296875,75.1318359375,74.7900390625,74.9853515625,75.2294921875,74.8388671875,75.8642578125,74.7900390625,75.5224609375,75.9619140625,75.2783203125,74.9365234375,75.0341796875,74.8388671875,74.5458984375,74.2041015625,73.5693359375,72.9345703125,73.5205078125,74.3505859375,76.0595703125,76.7919921875,76.4501953125,76.9384765625,76.7919921875,76.1572265625,75.9619140625,76.0107421875,76.3525390625,76.4990234375,76.2060546875,76.1083984375,75.7177734375,75.6201171875,75.1806640625,74.9853515625,74.3505859375,73.9599609375,73.4228515625,73.5693359375,73.5205078125,75.3759765625,75.7666015625,75.5224609375,75.8154296875,76.0107421875,75.4736328125,74.8388671875,74.6435546875,74.9365234375,74.8388671875,75.0830078125,74.6435546875,74.3505859375,74.1064453125,74.0576171875,73.6669921875,73.0322265625,72.3486328125,72.1533203125,71.3232421875,72.3974609375,73.6669921875,73.8623046875,73.8623046875,73.4716796875,72.9345703125,71.8603515625,72.1044921875,72.2021484375,72.3486328125,72.6416015625,71.1767578125,71.4697265625,70.6884765625,70.7373046875,69.8095703125,69.9560546875,68.5888671875,68.8330078125,69.0771484375,69.4677734375,70.4443359375,70.8837890625,70.9814453125,70.9326171875,71.0791015625,70.4443359375,69.9072265625,70.2001953125,69.8095703125,70.1513671875,69.7119140625,68.9306640625,69.1259765625,68.5400390625,68.7841796875,67.8564453125,67.2705078125,66.5380859375,66.9775390625,67.7099609375,68.2958984375,68.7353515625,68.5400390625,69.7607421875,68.9306640625,68.8818359375,68.6376953125,68.6865234375,69.1259765625,69.1259765625,68.5400390625,68.8330078125,67.8564453125,66.8310546875,67.0263671875,66.9775390625,66.4892578125,65.9521484375,65.6591796875,66.2939453125,67.4658203125,67.6611328125,68.6865234375,68.1005859375,68.4912109375,68.2958984375,67.6611328125,67.8564453125,67.1240234375,67.8076171875,67.9052734375,67.7099609375,67.2705078125,65.9521484375,66.0498046875,66.2451171875,65.3662109375,65.7568359375,65.0732421875,64.9267578125,66.0986328125,66.9775390625,67.3193359375,67.1240234375,66.8798828125,66.3427734375,65.8544921875,66.2451171875,66.3427734375,66.5869140625,66.2451171875,66.5869140625,65.9033203125,65.5615234375,65.4638671875,65.2197265625,64.3896484375,64.3896484375,64.0966796875,64.1455078125,65.2197265625,65.6591796875,65.9033203125,66.4404296875,66.3916015625,65.7568359375,65.2685546875,65.3662109375,65.8544921875,65.4150390625,66.0009765625,65.4150390625,65.1220703125,64.6337890625,64.2919921875,63.9013671875,63.1689453125,63.6083984375,63.1689453125,63.5595703125,64.7802734375,64.9755859375,65.1708984375,65.6591796875,65.2197265625,64.4384765625,64.2919921875,65.0732421875,64.1455078125,64.2919921875,64.7314453125,63.9990234375,63.9013671875,64.1943359375,63.8525390625,63.7548828125,63.3154296875,63.3154296875,64.3408203125,64.9755859375,65.0732421875,65.3173828125,65.8544921875,65.6591796875,65.5126953125,64.8291015625,65.2685546875,65.5615234375,65.1220703125,65.4150390625,65.0244140625,64.4384765625,64.6826171875,64.7802734375,64.0478515625,64.1455078125,64.0966796875,64.1943359375,64.8779296875,65.8056640625,66.3427734375,66.6357421875,66.7333984375,67.0263671875,66.8310546875,66.7822265625,67.5634765625,67.0263671875,67.2216796875,67.6611328125,67.4169921875,67.0263671875,67.1240234375,66.8798828125,65.9521484375,66.2451171875,66.0009765625,66.3427734375,66.9287109375,67.5634765625,68.2470703125,68.9306640625,69.1259765625,68.3935546875,68.5400390625,68.5400390625,68.7841796875,68.9306640625,69.1748046875,69.3212890625,69.0771484375,68.7353515625,68.7841796875,68.6865234375,68.3447265625,68.1005859375,67.2705078125,67.0751953125,66.9287109375,67.7099609375,68.6865234375,68.8818359375,69.0771484375,69.2724609375,69.3212890625,68.8330078125,68.8330078125,68.4423828125,68.9306640625,69.5654296875,69.3212890625,68.9306640625,69.0771484375,68.6865234375,68.3935546875,68.4423828125,67.9541015625,67.0751953125,67.2216796875,66.7333984375,67.7587890625,68.9794921875,69.3701171875,69.1259765625,69.1748046875,69.0283203125,68.7353515625,69.1259765625,68.6865234375,68.6376953125,68.4423828125,68.1982421875,68.4423828125,67.7587890625,68.3447265625,67.3193359375,67.2705078125,66.2451171875,66.0498046875,65.5126953125,66.0009765625,67.3193359375,67.8564453125,67.6123046875,67.2216796875,67.6611328125,67.4169921875,67.0751953125,67.1240234375,67.1240234375,67.5634765625,67.0263671875,67.3193359375,66.7822265625,66.1474609375,65.6103515625,65.5126953125,65.3173828125,64.9755859375,64.5849609375,65.8544921875,66.2451171875,66.9775390625,67.1728515625,67.2705078125,67.1240234375,66.9287109375,67.4169921875,66.7822265625,67.1728515625,67.0751953125,66.9287109375,66.8798828125,66.7333984375,66.6357421875,66.4404296875,65.5615234375,65.0732421875,64.9267578125,64.7314453125,65.1220703125,65.9521484375,67.0751953125,67.0751953125,67.7587890625,67.6123046875,67.4658203125,67.6611328125,67.2705078125,67.7099609375,67.4169921875,67.2705078125,67.4169921875,66.8798828125,67.2705078125,66.3916015625,66.3427734375,65.9521484375,65.5615234375,64.7802734375,64.5361328125,66.0009765625,66.8798828125,67.1728515625,67.5146484375,67.1728515625,68.1494140625,67.5634765625,67.2216796875,67.5634765625,67.7587890625,67.6611328125,67.3681640625,67.3193359375,66.3916015625,66.8798828125,66.0986328125,65.6103515625,65.4150390625,64.6337890625,65.1220703125,63.9990234375,64.8291015625,65.8056640625,66.8310546875,66.7333984375,66.9775390625,67.0751953125,66.3427734375,65.9521484375,66.1962890625,66.1962890625,66.5869140625,65.7080078125,65.9521484375,65.2197265625,65.4638671875,64.9755859375,64.6826171875,64.3408203125,63.7060546875,63.6572265625,63.3642578125,64.2919921875,64.6337890625,65.9033203125,65.7568359375,65.8056640625,65.6103515625,64.8291015625,65.2685546875,65.1708984375,65.0732421875,64.6826171875,65.2197265625,64.2431640625,63.9013671875,63.7060546875,63.6083984375,63.3154296875,62.7294921875,61.9970703125,61.9482421875,62.5830078125,64.1455078125,64.8779296875,65.8056640625,65.0732421875,65.1220703125,64.4873046875,64.3896484375,64.6826171875,64.6337890625,64.6826171875,64.8779296875,64.8291015625,64.4384765625,64.0966796875,63.9013671875,63.3642578125,62.4853515625,61.9482421875,61.6552734375,62.3388671875,62.7294921875,64.1943359375,65.0244140625,64.8291015625,65.0732421875,64.8779296875,64.5849609375,64.2919921875,64.7802734375,64.4384765625,64.8291015625,64.1455078125,64.3896484375,64.5361328125,63.9501953125,63.4619140625,62.9248046875,63.1201171875,62.2900390625,62.4365234375,61.8505859375,63.0712890625,64.5361328125,64.8291015625,65.5126953125,65.6591796875,65.4638671875,64.7802734375,64.9267578125,65.3173828125,65.2197265625,64.7802734375,64.4384765625,64.3896484375,64.6337890625,64.1455078125,63.8037109375,63.2666015625,62.8271484375,62.2900390625,61.7041015625,61.8017578125,63.3642578125,64.1943359375,64.3408203125,64.0966796875,64.7314453125,64.4873046875,64.3896484375,63.6572265625,64.1455078125,64.2919921875,64.3408203125,63.6572265625,63.7548828125,63.5107421875,62.9248046875,63.1201171875,62.5341796875,62.2900390625,61.5576171875,60.9716796875,61.4599609375,61.4599609375,62.0947265625,63.4130859375,62.7783203125,63.6083984375,62.8759765625,62.5830078125,62.2412109375,62.4365234375,62.7294921875,62.2900390625,62.3388671875,61.7041015625,60.9716796875,61.5576171875,60.9716796875,60.4345703125,60.0439453125,59.5556640625,59.2626953125,58.6279296875,59.5068359375,60.3857421875,60.5322265625,60.9716796875,60.8251953125,60.9716796875,59.7998046875,59.7509765625,59.4580078125,60.1904296875,60.1416015625,59.2138671875,58.9697265625,59.1162109375,58.8720703125,58.7744140625,58.0908203125,57.8955078125,56.7236328125,57.2119140625,57.6025390625,58.7255859375,58.8232421875,58.5791015625,58.9208984375,58.5791015625,58.4814453125,58.1884765625,58.0419921875,57.9443359375,58.0908203125,57.7978515625,57.4560546875,56.7236328125,56.6748046875,55.9912109375,55.9423828125,55.3564453125,55.1123046875,55.1123046875,55.6494140625,56.4794921875,57.2119140625,57.6025390625,57.8466796875,57.5537109375,57.1142578125,56.4794921875,56.8212890625,56.5283203125,56.7236328125,57.0654296875,57.1630859375,56.2353515625,56.1865234375,56.1865234375,55.7470703125,54.9169921875,54.5751953125,54.1357421875,54.1357421875,55.4541015625,55.9912109375,57.2119140625,57.5537109375,56.7236328125,57.3095703125,56.2353515625,56.2841796875,56.1865234375,56.5283203125,56.6748046875,57.0654296875,56.2841796875,56.2841796875,55.6982421875,56.1376953125,55.6494140625,54.6728515625,54.8681640625,54.7705078125,55.2587890625,56.2353515625,56.6748046875,57.5048828125,57.6513671875,57.7001953125,57.1142578125,56.8701171875,57.0166015625,57.3095703125,57.0166015625,57.2607421875,57.5537109375,56.6748046875,56.7724609375,56.5283203125,56.0888671875,55.6494140625,56.1865234375,54.7705078125,54.4775390625,56.1376953125,56.6748046875,57.4560546875,57.6025390625,57.7490234375,57.8466796875,57.4560546875,57.3095703125,57.0654296875,57.3095703125,57.5048828125,57.5537109375,57.0166015625,56.6748046875,56.4794921875,56.5283203125,56.2841796875,55.7958984375,55.6494140625,55.1611328125,54.8193359375,55.1611328125,56.4794921875,56.9677734375,57.5048828125,57.8466796875,57.8466796875,57.1142578125,56.5283203125,57.3095703125,57.0654296875,57.2119140625,56.7236328125,56.9189453125,56.3330078125,55.7958984375,55.4541015625,55.9423828125,55.0634765625,54.4775390625,53.9892578125,54.9658203125,55.3076171875,56.2353515625,56.5283203125,56.7724609375,56.5771484375,57.2119140625,56.2841796875,55.8935546875,56.6748046875,56.1865234375,56.1865234375,56.0400390625,55.9423828125,56.2353515625,56.0400390625,55.1123046875,55.0146484375,54.6728515625,54.1845703125,53.5009765625,53.7451171875,54.9169921875,55.5517578125,56.3818359375,55.9912109375,56.9677734375,56.5283203125,56.1865234375,55.4052734375,56.1865234375,56.0888671875,56.6748046875,56.2841796875,56.1376953125,55.6494140625,55.2099609375,55.0146484375,54.9169921875,54.3310546875,54.3798828125,53.6962890625,53.7939453125,54.2333984375,54.8193359375,55.1123046875,55.3564453125,56.1376953125,55.6982421875,55.7470703125,55.2099609375,54.8681640625,56.0888671875,55.9912109375,55.8447265625,55.7470703125,54.9658203125,54.8193359375,54.3798828125,54.6240234375,54.2822265625,53.3544921875,53.2080078125,52.9150390625,52.7685546875,53.5986328125,53.9404296875,54.7705078125,54.4775390625,54.7216796875,53.9892578125,54.1357421875,54.0380859375,54.3310546875,53.8427734375,53.9404296875,53.7939453125,53.8427734375,53.5986328125,53.3056640625,52.8662109375,51.9384765625,52.1337890625,51.5966796875,51.3525390625,52.0849609375,52.5732421875,52.8173828125,53.1103515625,53.2080078125,53.4521484375,52.6220703125,52.4267578125,52.5244140625,52.4267578125,52.5732421875,52.7197265625,52.5732421875,51.8408203125,51.9873046875,52.2802734375,51.4990234375,51.1572265625,50.3759765625,50.6201171875,50.0341796875,52.0361328125,52.5244140625,53.1103515625,53.2080078125,53.0126953125,53.0126953125,52.2802734375,53.0615234375,52.3779296875,52.8662109375,53.0615234375,52.9638671875,52.5244140625,52.2314453125,52.2802734375,51.9384765625,51.6455078125,51.0595703125,51.5966796875,51.5478515625,52.5244140625,53.4521484375,54.2333984375,54.4287109375,54.4775390625,54.2333984375,54.1357421875,54.2822265625,55.0634765625,54.3310546875,55.0146484375,54.9169921875,55.1611328125,54.5751953125,54.6728515625,53.8427734375,53.8916015625,53.3544921875,53.5009765625,54.5751953125,55.4541015625,55.9423828125,57.1142578125,56.8212890625,57.5048828125,57.3583984375,56.8212890625,57.0654296875,57.7490234375,57.6025390625,57.6513671875,57.6025390625,57.6513671875,57.4560546875,57.6513671875,57.2607421875,57.0654296875,56.1376953125,55.6982421875,56.0888671875,56.9677734375,58.0419921875,58.4814453125,58.8720703125,59.2138671875,59.1162109375,59.3115234375,59.3115234375,59.7509765625,59.2626953125,59.6533203125,59.6533203125,59.5556640625,59.7021484375,58.9208984375,59.0673828125,58.0908203125,58.3349609375,58.2861328125,57.7978515625,58.8232421875,59.3115234375,59.9951171875,60.1416015625,60.5810546875,60.2392578125,60.0439453125,59.5068359375,59.5068359375,59.5068359375,59.5068359375,59.3603515625,59.3115234375,58.5302734375,58.8232421875,58.4814453125,58.2373046875,57.8466796875,57.0654296875,57.1142578125,57.7978515625,59.7021484375,59.8486328125,59.9462890625,60.5322265625,59.7998046875,59.2626953125,59.8486328125,59.8974609375,59.6044921875,59.4091796875,59.5556640625,59.0673828125,59.7021484375,59.0185546875,58.7744140625,58.1396484375,58.2373046875,57.2119140625,57.3583984375,58.1884765625,59.2626953125,59.7021484375,59.4091796875,60.3369140625,59.4580078125,58.9697265625,59.0185546875,59.2626953125,59.0673828125,59.6044921875,59.1162109375,59.3603515625,59.1650390625,58.6767578125,58.7744140625,58.7255859375,57.7978515625,57.8466796875,57.7490234375,57.6025390625,58.3349609375,59.2626953125,59.7509765625,59.4580078125,59.9951171875,59.9462890625,59.3115234375,59.5068359375,59.6044921875,59.3115234375,59.2626953125,59.0673828125,59.0673828125,59.0185546875,58.2861328125,58.3837890625,57.8466796875,57.7490234375,57.2607421875,57.0654296875,56.9677734375,58.6767578125,58.7255859375,58.9697265625,59.3603515625,58.8232421875,58.3837890625,58.1884765625,58.5791015625,58.5791015625,58.3349609375,57.7978515625,58.0419921875,57.5048828125,57.6025390625,56.8212890625,57.0654296875,56.3330078125,55.9423828125,55.6494140625,55.2099609375,55.6005859375,56.4306640625,56.7724609375,57.1630859375,57.2119140625,57.3583984375,56.5283203125,55.9912109375,55.8447265625,56.0400390625,54.9658203125,55.2099609375,55.3564453125,54.8681640625,54.8681640625,54.3310546875,53.8916015625,53.4033203125,53.2568359375,52.8662109375,52.6220703125,52.7197265625,53.5498046875,53.9404296875,53.9404296875,54.3798828125,53.9892578125,53.4033203125,53.5009765625,53.2568359375,53.1591796875,53.3544921875,52.6708984375,52.0849609375,52.0849609375,52.1337890625,51.6943359375,50.7666015625,50.9619140625,50.7666015625,49.9365234375,51.0107421875,51.4990234375,52.3291015625,52.1826171875,52.1826171875,51.9384765625,52.1826171875,51.4013671875,51.9384765625,51.7919921875,51.5478515625,51.9873046875,51.2060546875,50.8642578125,50.7666015625,50.8154296875,49.9365234375,50.0830078125,49.2529296875,49.3505859375,49.4482421875,50.9130859375,51.0107421875,51.4990234375,51.5966796875,51.4013671875,51.6455078125,50.9619140625,51.1083984375,51.4501953125,51.0107421875,51.2548828125,51.1572265625,51.3037109375,50.4736328125,50.6201171875,49.9853515625,49.4970703125,49.7900390625,49.3017578125,49.5458984375,50.2294921875,51.2548828125,51.4501953125,51.9384765625,51.8896484375,51.7431640625,51.0595703125,51.5478515625,51.3525390625,51.7431640625,51.7431640625,51.9384765625,51.6943359375,51.4013671875,51.5478515625,51.5478515625,51.3525390625,51.0107421875,51.0107421875,50.0830078125,50.9619140625,51.2548828125,52.4267578125,52.9150390625,53.1591796875,53.1103515625,53.1591796875,52.9150390625,52.7197265625,53.7451171875,53.0126953125,53.9404296875,53.4521484375,52.8173828125,52.9638671875,52.9638671875,53.3544921875,53.3056640625,52.3291015625,51.7919921875,51.3525390625,52.0361328125,53.3544921875,53.9892578125,54.2822265625,54.2333984375,54.4775390625,54.0869140625,54.5263671875,54.1357421875,54.6240234375,55.0634765625,54.9169921875,54.8193359375,55.0146484375,54.7705078125,54.7216796875,54.2822265625,53.5009765625,53.3056640625,52.8173828125,52.6220703125,53.7939453125,55.0146484375,55.7470703125,56.1865234375,56.3818359375,56.5283203125,56.5771484375,56.2353515625,57.3095703125,57.3095703125,57.0654296875,57.5537109375,57.4560546875,57.2119140625,56.9677734375,56.8701171875,56.5771484375,56.5771484375,55.3076171875,55.3076171875,55.4541015625,56.0400390625,57.4072265625,58.2373046875,58.9697265625,59.2626953125,59.7509765625,58.7744140625,58.5791015625,59.5068359375,59.4091796875,59.4091796875,59.9951171875,59.6533203125,59.7998046875,59.7509765625,59.6533203125,58.9697265625,58.0419921875,58.0908203125,57.7001953125,57.3095703125,58.1396484375,59.2626953125,60.4345703125,60.7763671875,61.0205078125,61.8017578125,60.6787109375,60.5322265625,60.5810546875,60.6787109375,60.3857421875,61.2158203125,60.7275390625,60.7275390625,60.5810546875,60.2880859375,59.7998046875,59.5068359375,58.7255859375,58.7744140625,58.1396484375,58.3349609375,59.6533203125,60.1904296875,61.1669921875,61.0693359375,60.9228515625,60.4833984375,59.6044921875,60.4345703125,59.9951171875,60.0439453125,59.8486328125,59.7509765625,59.4580078125,59.0673828125,59.3603515625,58.6279296875,58.5791015625,57.8955078125,57.2607421875,57.1142578125,57.6513671875,58.4814453125,58.8720703125,59.4091796875,59.1162109375,59.1162109375,58.5791015625,58.4814453125,58.7255859375,58.8232421875,58.1396484375,58.7255859375,57.8466796875,57.8466796875,58.0419921875,57.5048828125,56.2353515625,56.0888671875,55.6982421875,55.5029296875,55.3564453125,56.6259765625,57.2607421875,57.5048828125,58.1396484375,57.8466796875,57.1142578125,56.6259765625,56.2353515625,56.9189453125,56.5771484375,56.9189453125,56.8212890625,56.7724609375,56.1865234375,55.6982421875,55.5029296875,55.3564453125,54.4287109375,53.9892578125,53.5986328125,54.4287109375,55.2099609375,55.8447265625,56.2353515625,56.3330078125,56.8701171875,55.9912109375,55.6982421875,55.9912109375,56.2841796875,56.3818359375,56.7236328125,56.0400390625,56.1865234375,55.6494140625,55.6982421875,55.0634765625,54.1357421875,53.6474609375,53.7939453125,54.3310546875,53.5986328125,54.9169921875,56.3818359375,56.2841796875,56.3818359375,56.7236328125,56.3330078125,55.6494140625,55.2099609375,55.9423828125,56.4794921875,55.6494140625,55.5029296875,55.7470703125,55.4541015625,55.4052734375,53.9404296875,54.3310546875,54.0380859375,53.5986328125,53.1103515625,53.5009765625,54.7216796875,55.5029296875,55.6005859375,55.6005859375,55.3564453125,54.4775390625,54.4775390625,54.1845703125,54.7705078125,54.3310546875,54.0869140625,54.1357421875,53.5009765625,53.4033203125,52.6220703125,53.0615234375,52.2802734375,51.6943359375,51.3037109375,50.5712890625,52.1337890625,53.3544921875,53.0615234375,53.0126953125,52.8173828125,52.8662109375,52.1337890625,51.8896484375,52.3779296875,52.3291015625,51.6943359375,51.2548828125,50.7177734375,50.6689453125,50.5224609375,49.8388671875,49.4970703125,48.9599609375,49.0576171875,48.5205078125,49.1552734375,49.4970703125,49.8876953125,50.1318359375,49.8876953125,50.4736328125,49.7412109375,49.6435546875,48.7646484375,48.9599609375,49.0087890625,48.5693359375,48.7158203125,48.1787109375,47.8369140625,47.7880859375,46.5185546875,46.3720703125,46.1767578125,46.4697265625,46.6650390625,47.2509765625,48.3251953125,48.6181640625,48.6181640625,48.1298828125,47.7880859375,47.6904296875,47.1044921875,47.7880859375,47.9833984375,47.4462890625,47.4951171875,47.2509765625,47.0556640625,47.0068359375,46.1767578125,46.1767578125,46.0791015625,45.4931640625,45.7861328125,46.1767578125,47.0556640625,47.4951171875,47.6904296875,48.3251953125,48.0322265625,47.5439453125,47.1533203125,47.1533203125,47.3486328125,48.1298828125,46.9580078125,47.5927734375,47.0556640625,46.2744140625,45.7373046875,45.6396484375,45.6884765625,45.1513671875,45.5419921875,45.2978515625,45.5419921875,46.5673828125,47.0556640625,47.4462890625,47.3974609375,46.7138671875,47.0556640625,46.9091796875,46.6162109375,47.2998046875,46.7626953125,46.3720703125,46.5185546875,46.3232421875,46.0791015625,45.4931640625,45.2490234375,44.8583984375,44.1748046875,44.1748046875,44.2236328125,45.3466796875,45.2490234375,45.7861328125,46.1279296875,46.1279296875,45.4443359375,44.9560546875,45.1513671875,45.4443359375,44.6630859375,44.9072265625,44.5166015625,44.4189453125,43.8818359375,43.5888671875,43.3935546875,43.4912109375,42.7587890625,42.7099609375,43.1982421875,43.8330078125,44.7607421875,45.1025390625,44.9072265625,44.5166015625,44.3701171875,43.8818359375,44.4189453125,43.6865234375,43.9794921875,43.6865234375,44.1259765625,43.8330078125,43.1982421875,42.8564453125,42.5634765625,42.2216796875,41.9287109375,41.6357421875,41.7333984375,43.4912109375,43.4912109375,44.6142578125,43.5888671875,43.9306640625,44.1748046875,43.7353515625,43.7353515625,43.8818359375,43.3447265625,43.7353515625,43.8330078125,43.6376953125,43.4423828125,42.7587890625,42.7587890625,42.7099609375,42.1728515625,42.0751953125,42.1240234375,43.4423828125,43.5888671875,44.1259765625,44.6630859375,44.4189453125,44.3212890625,43.7353515625,44.5654296875,44.3701171875,44.4189453125,44.1748046875,44.4189453125,43.6376953125,43.1494140625,43.7841796875,42.7587890625,42.1728515625,42.0263671875,41.2451171875,41.0009765625,41.3916015625,42.7587890625,43.1982421875,43.5888671875,43.8330078125,43.9794921875,43.4912109375,43.3935546875,43.2958984375,43.2958984375,43.2470703125,43.0029296875,43.0517578125,42.8076171875,42.3681640625,42.0263671875,42.1240234375,41.4404296875,41.1962890625,40.7080078125,40.9033203125,41.9287109375,41.8310546875,43.0029296875,42.6123046875,43.3447265625,42.1240234375,41.5380859375,41.6845703125,41.7333984375,41.9775390625,41.4892578125,41.8310546875,41.6357421875,41.4892578125,40.5126953125,40.7080078125,39.8291015625,39.3408203125,39.5361328125,40.0732421875,41.1474609375,42.2216796875,41.5380859375,42.3193359375,42.1728515625,41.1962890625,41.0986328125,42.0263671875,41.4404296875,41.5869140625,41.6357421875,41.8310546875,41.7333984375,41.4892578125,41.1962890625,40.3662109375,40.3662109375,40.2685546875,39.9755859375,40.5126953125,41.6357421875,41.8310546875,42.7099609375,42.1240234375,42.5634765625,42.3681640625,41.9775390625,41.9775390625,42.0751953125,42.0751953125,42.7099609375,42.7587890625,42.3193359375,42.3681640625,41.8798828125,41.7333984375,41.5380859375,41.0986328125,41.5380859375,41.4892578125,42.4658203125,43.2470703125,43.8818359375,44.0283203125,44.0771484375,44.1748046875,44.0283203125,43.5400390625,44.4677734375,44.1748046875,44.2236328125,44.3701171875,45.2490234375,44.0283203125,44.1259765625,43.4423828125,43.6376953125,43.5888671875,42.6611328125,43.5400390625,44.4677734375,44.7119140625,45.4931640625,46.1767578125,45.7861328125,45.6884765625,45.5908203125,45.4931640625,45.1513671875,45.1513671875,45.4931640625,45.2490234375,45.2978515625,45.3955078125,45.6396484375,44.6630859375,45.0537109375,44.0771484375,43.7841796875,44.1748046875,44.3212890625,46.2255859375,46.3232421875,46.2255859375,46.8115234375,46.6650390625,46.0302734375,46.5673828125,46.2744140625,46.3232421875,46.7138671875,46.5185546875,46.7626953125,45.9814453125,45.9326171875,45.8837890625,45.7373046875,45.2001953125,45.4931640625,45.1025390625,46.5185546875,47.3486328125,47.5439453125,48.3251953125,48.3251953125,47.7880859375,47.7392578125,47.7880859375,48.4228515625,47.6904296875,48.6181640625,47.9345703125,48.4228515625,48.4716796875,48.4716796875,47.5927734375,48.0810546875,47.0556640625,47.3974609375,47.6904296875,49.5458984375,49.8876953125,50.6201171875,51.2548828125,51.4501953125,51.8896484375,51.1572265625,51.4501953125,52.0361328125,52.1826171875,52.1337890625,52.6220703125,52.6708984375,52.5244140625,52.2802734375,52.0849609375,51.7919921875,51.4013671875,51.0595703125,52.3779296875,53.5986328125,54.6240234375,54.9658203125,55.6005859375,56.1865234375,56.5771484375,56.2353515625,56.0888671875,56.9189453125,57.3095703125,57.1630859375,58.0908203125,57.5048828125,57.0654296875,56.9677734375,56.3330078125,56.1865234375,55.3076171875,55.6005859375,55.7958984375,57.0166015625,58.1396484375,58.9697265625,59.6533203125,59.4091796875,60.1904296875,59.8486328125,59.3603515625,59.7509765625,60.0439453125,60.1904296875,60.0927734375,59.9462890625,59.5556640625,59.5556640625,58.9697265625,58.5302734375,57.9931640625,57.6025390625,57.2607421875,57.8466796875,58.5791015625,59.6533203125,59.4580078125,60.1904296875,59.7021484375,59.8486328125,59.5068359375,59.6533203125,59.0185546875,59.1162109375,59.3603515625,59.6533203125,58.8232421875,58.2373046875,57.9931640625,57.7490234375,57.0166015625,56.2841796875,56.2353515625,55.3076171875,56.7724609375,58.0419921875,58.1884765625,58.3837890625,58.1396484375,57.8466796875,56.9189453125,56.9189453125,56.8212890625,56.4306640625,56.6259765625,56.4794921875,56.1865234375,55.7470703125,55.7470703125,54.1357421875,54.0380859375,53.5986328125,53.3544921875,53.5009765625,54.2333984375,54.8193359375,55.3564453125,55.6982421875,55.3076171875,55.1123046875,54.4287109375,54.4775390625,54.2333984375,53.8427734375,53.8427734375,53.9892578125,53.2080078125,53.4033203125,52.4267578125,51.8896484375,50.9619140625,51.4013671875,50.8642578125,50.2783203125,50.2783203125,51.3037109375,51.7431640625,52.5244140625,53.2568359375,52.0361328125,51.9384765625,51.4501953125,50.9619140625,51.4501953125,51.1572265625,51.0595703125,51.1572265625,50.2294921875,48.8134765625,49.4482421875,48.5205078125,48.3740234375,47.7880859375,46.7626953125,46.3720703125,46.7138671875,47.6416015625,48.0810546875,48.4716796875,48.3251953125,47.9345703125,47.7880859375,47.5927734375,46.9580078125,47.0068359375,47.3486328125,46.6650390625,46.7626953125,46.5673828125,45.4931640625,45.5419921875,44.5654296875,44.3212890625,43.3935546875,42.9052734375,43.0517578125,42.2216796875,42.8076171875,44.2236328125,43.8330078125,44.2724609375,44.1748046875,43.0517578125,43.3447265625,43.1494140625,42.4169921875,42.3193359375,42.5634765625,41.9775390625,42.0751953125,41.4404296875,40.7080078125,40.9033203125,40.0244140625,39.5849609375,38.9990234375,38.2666015625,38.9990234375,39.9267578125,40.4150390625,40.7080078125,40.3662109375,39.9267578125,39.6337890625,38.9013671875,39.1455078125,38.7548828125,38.9501953125,38.8525390625,38.6083984375,38.1201171875,38.2177734375,37.4853515625,37.3876953125,36.4599609375,36.5087890625,35.6298828125,35.3857421875,37.3388671875,37.6806640625,37.9736328125,38.1201171875,38.0712890625,36.9482421875,36.4111328125,36.6064453125,36.5087890625,36.8017578125,36.3623046875,36.2646484375,36.0205078125,36.2158203125,35.9228515625,35.1904296875,34.4580078125,33.9208984375,34.0185546875,34.4091796875,35.7275390625,36.8994140625,37.0458984375,37.1923828125,37.3388671875,37.9736328125,36.7529296875,37.1435546875,37.2900390625,36.9970703125,37.1435546875,36.9482421875,37.4365234375,36.5576171875,36.8994140625,35.9716796875,36.0205078125,35.9716796875,36.0693359375,35.7763671875,36.7041015625,38.5107421875,39.1943359375,39.9267578125,39.9755859375,40.0732421875,39.8291015625,39.1455078125,39.9267578125,40.2685546875,40.4150390625,41.0498046875,40.5615234375,40.6103515625,40.8544921875,40.5615234375,40.0244140625,39.7314453125,39.7802734375,39.1943359375,39.4873046875,40.9521484375,42.0751953125,43.1982421875,43.8330078125,44.6142578125,44.2236328125,44.5166015625,43.8818359375,44.2724609375,44.5654296875,45.0048828125,45.3466796875,45.1025390625,45.4443359375,44.2236328125,44.9072265625,43.7841796875,44.2724609375,43.6865234375,42.9052734375,43.5400390625,44.5654296875,45.7861328125,46.3232421875,47.0068359375,47.1533203125,47.0556640625,46.4208984375,46.6162109375,46.6650390625,47.2021484375,47.0068359375,46.9580078125,46.8115234375,46.3720703125,45.9326171875,45.6396484375,45.8349609375,45.2978515625,44.5166015625,44.1259765625,44.6630859375,45.2001953125,45.8837890625,46.7138671875,47.0556640625,47.0068359375,46.6650390625,46.2744140625,45.9326171875,46.2255859375,45.9326171875,44.9560546875,45.7373046875,45.2490234375,44.4677734375,44.5166015625,44.3701171875,43.5400390625,43.1494140625,42.9541015625,42.0751953125,42.7587890625,43.2958984375,44.3701171875,44.2236328125,44.7607421875,43.4912109375,43.2470703125,42.9541015625,43.0517578125,42.3681640625,42.7587890625,42.8076171875,42.2705078125,42.4658203125,41.9287109375,40.9033203125,40.8056640625,40.0244140625,40.1220703125,40.5126953125,40.7080078125,41.5380859375,41.9775390625,42.6123046875,42.0751953125,42.1728515625,41.4892578125,41.0986328125,40.4150390625,41.2451171875,41.0009765625,40.8544921875,40.8056640625,40.2685546875,39.5361328125,39.4873046875,38.8037109375,38.9990234375,38.6572265625,38.6083984375,39.7314453125,40.7568359375,40.7080078125,40.9521484375,40.4638671875,40.4638671875,40.0732421875,39.5361328125,40.1220703125,39.7314453125,40.0732421875,40.0732421875,39.8779296875,39.5361328125,39.1455078125,38.6083984375,38.1201171875,37.7294921875,37.8271484375,38.3154296875,39.4384765625,40.1220703125,39.6337890625,40.5615234375,40.4638671875,40.2685546875,38.8037109375,39.3408203125,39.6826171875,39.5361328125,40.0244140625,39.8291015625,39.2919921875,38.8037109375,38.7548828125,38.3154296875,38.0224609375,37.4365234375,37.3388671875,37.8271484375,38.2177734375,39.4873046875,39.5361328125,39.8291015625,40.0244140625,39.6826171875,38.9990234375,39.1455078125,39.2919921875,39.2431640625,39.6337890625,38.7060546875,38.9990234375,38.6083984375,38.3154296875,38.2177734375,37.7783203125,37.1435546875,37.4365234375,36.6064453125,36.7041015625,37.9248046875,37.8271484375,38.4619140625,38.8525390625,38.3642578125,37.9736328125,37.8759765625,37.9736328125,37.9248046875,37.8759765625,37.1923828125,37.2900390625,37.3876953125,36.8505859375,36.1181640625,36.7041015625,36.0693359375,35.6298828125,34.6044921875,34.1650390625,35.0439453125,35.0927734375,36.0205078125,36.0205078125,36.6064453125,36.3623046875
