PPG_subj_21,65,M,Y,Diabetic (Type 2),100,34.5776,Forehead,0.185546875,0.185546875,0.185546875,0.185546875,0.185546875,0.185546875,91.7333984375,-109.7216796875,-107.8173828125,-105.6689453125,-103.7646484375,-100.7373046875,-98.8818359375,-97.8564453125,-96.0498046875,-94.6826171875,-94.0966796875,-93.7060546875,-93.6083984375,-94.0478515625,-94.2919921875,-93.7548828125,-93.4619140625,-93.3154296875,-92.8759765625,-92.6806640625,-93.1689453125,-94.0478515625,-94.0478515625,-94.3896484375,-94.1455078125,-95.4638671875,-95.4638671875,-95.4638671875,-96.5380859375,-96.6845703125,-96.9775390625,-97.3193359375,-96.2939453125,-95.1220703125,-94.1943359375,-93.3154296875,-91.7041015625,-90.3369140625,-88.6767578125,-86.7236328125,-86.4794921875,-85.8935546875,-84.6240234375,-84.8681640625,-84.1845703125,-83.7939453125,-83.9892578125,-84.6240234375,-85.0146484375,-85.0146484375,-85.9423828125,-85.7470703125,-86.3330078125,-86.5771484375,-86.3818359375,-86.5771484375,-85.8935546875,-86.6748046875,-88.1396484375,-88.7255859375,-91.2158203125,-91.5576171875,-91.8017578125,-94.1943359375,-96.4892578125,-94.1455078125,-89.0185546875,-85.1611328125,-84.9169921875,-82.6708984375,-82.0849609375,-81.0107421875,-79.3994140625,-80.3271484375,-81.6455078125,-81.3037109375,-81.2060546875,-79.1552734375,-77.2021484375,-75.4443359375,-74.3212890625,-73.4423828125,-74.0771484375,-76.0302734375,-77.3974609375,-78.7158203125,-81.0595703125,-81.4501953125,-82.6220703125,-82.1337890625,-81.3037109375,-80.6689453125,-79.8876953125,-80.4248046875,-80.9619140625,-82.0361328125,-83.0126953125,-84.4775390625,-85.4052734375,-86.1865234375,-86.2841796875,-85.8447265625,-84.4287109375,-82.4755859375,-80.4736328125,-78.8134765625,-77.5439453125,-76.4697265625,-76.2255859375,-76.4208984375,-76.9580078125,-75.9814453125,-76.3720703125,-76.4208984375,-76.7138671875,-75.9326171875,-75.6884765625,-76.2255859375,-77.8857421875,-78.0322265625,-79.3994140625,-79.5947265625,-80.2783203125,-81.7431640625,-81.8896484375,-81.4990234375,-82.0361328125,-81.9384765625,-81.8896484375,-82.4267578125,-83.3544921875,-83.9892578125,-85.0146484375,-85.8447265625,-85.0634765625,-84.1357421875,-82.9150390625,-81.2060546875,-78.7158203125,-77.2509765625,-76.3232421875,-75.9814453125,-75.0537109375,-75.4931640625,-75.9326171875,-74.5166015625,-75.1025390625,-74.2724609375,-74.6630859375,-74.4189453125,-74.4677734375,-74.7119140625,-74.9560546875,-76.2744140625,-77.1044921875,-78.0810546875,-78.9111328125,-78.9599609375,-80.2783203125,-79.9853515625,-80.3271484375,-81.2548828125,-81.4501953125,-82.4755859375,-82.5732421875,-83.3544921875,-83.5498046875,-83.8427734375,-82.7685546875,-81.8896484375,-80.3759765625,-79.1064453125,-77.6904296875,-76.7138671875,-75.0537109375,-74.6630859375,-74.6142578125,-73.3935546875,-73.6376953125,-73.7353515625,-73.3935546875,-74.1748046875,-74.3701171875,-74.6630859375,-75.1513671875,-75.9814453125,-76.2744140625,-76.6162109375,-77.2021484375,-77.4951171875,-78.4716796875,-78.9111328125,-79.1552734375,-80.0341796875,-80.6201171875,-81.4990234375,-81.8408203125,-82.6708984375,-83.1591796875,-84.0380859375,-84.1357421875,-83.5986328125,-82.5244140625,-81.1572265625,-79.3994140625,-78.4228515625,-77.1533203125,-75.5419921875,-74.7607421875,-73.9794921875,-73.4912109375,-72.6611328125,-71.9287109375,-72.0263671875,-72.2216796875,-72.4169921875,-72.3681640625,-73.0029296875,-73.7353515625,-73.7353515625,-74.2724609375,-74.9560546875,-75.2490234375,-75.7861328125,-76.2744140625,-77.1044921875,-77.0556640625,-78.1787109375,-78.5205078125,-78.2275390625,-79.5947265625,-79.9365234375,-80.5224609375,-81.2060546875,-81.1083984375,-80.0341796875,-78.9111328125,-78.1787109375,-76.7626953125,-75.2001953125,-73.6376953125,-72.1240234375,-71.5869140625,-71.0986328125,-70.3173828125,-70.1708984375,-69.4873046875,-69.9267578125,-70.3662109375,-70.7568359375,-70.5615234375,-70.7080078125,-71.0009765625,-71.3427734375,-71.9287109375,-72.3681640625,-72.7099609375,-73.7353515625,-74.8095703125,-74.2724609375,-75.7861328125,-75.9814453125,-77.1533203125,-77.5927734375,-77.7392578125,-78.9599609375,-79.4970703125,-79.3017578125,-78.9111328125,-77.8369140625,-76.5185546875,-75.7373046875,-73.3935546875,-72.0263671875,-70.5126953125,-69.8779296875,-69.4873046875,-69.9267578125,-68.7060546875,-68.0712890625,-68.6083984375,-68.0712890625,-68.8525390625,-69.3896484375,-69.7802734375,-70.7080078125,-71.7822265625,-72.1240234375,-72.6611328125,-73.3935546875,-74.3701171875,-74.5654296875,-75.6884765625,-76.1279296875,-77.1044921875,-77.2509765625,-77.7880859375,-78.6181640625,-78.9111328125,-80.4248046875,-80.4736328125,-79.8388671875,-78.5693359375,-77.5927734375,-76.3232421875,-75.3466796875,-73.9306640625,-72.2216796875,-71.6357421875,-70.5615234375,-70.4638671875,-70.4150390625,-70.6591796875,-70.0244140625,-70.7568359375,-70.5126953125,-71.2939453125,-72.2705078125,-72.4658203125,-73.0517578125,-73.9794921875,-74.6142578125,-74.9072265625,-75.3955078125,-75.9326171875,-76.5185546875,-77.2021484375,-77.8369140625,-78.1298828125,-79.0576171875,-79.9853515625,-81.1083984375,-81.6455078125,-81.4501953125,-81.8896484375,-81.3037109375,-80.6201171875,-80.0341796875,-78.2275390625,-77.1044921875,-75.5419921875,-73.9794921875,-73.5888671875,-72.8076171875,-73.2958984375,-73.3935546875,-73.1494140625,-73.1494140625,-73.3447265625,-73.5888671875,-74.0771484375,-74.9560546875,-75.8349609375,-75.2978515625,-76.8115234375,-77.0068359375,-77.2509765625,-78.5205078125,-78.9111328125,-79.5458984375,-80.6689453125,-80.5712890625,-81.2060546875,-82.1337890625,-82.1337890625,-83.1591796875,-83.6474609375,-84.6728515625,-84.6728515625,-83.7451171875,-82.8173828125,-80.9619140625,-79.3994140625,-77.7880859375,-76.8115234375,-75.7861328125,-74.5166015625,-74.8583984375,-74.4677734375,-73.9306640625,-73.9306640625,-74.0771484375,-74.8095703125,-75.2001953125,-75.3955078125,-75.7861328125,-76.7626953125,-77.0556640625,-77.9345703125,-78.2275390625,-78.4716796875,-79.6435546875,-80.1806640625,-80.8154296875,-81.1083984375,-81.2060546875,-82.0361328125,-82.7197265625,-83.4521484375,-83.6474609375,-84.2822265625,-84.8681640625,-84.7705078125,-83.2568359375,-81.9873046875,-81.4990234375,-79.8876953125,-78.3740234375,-76.7138671875,-75.5419921875,-75.3955078125,-74.5166015625,-74.6630859375,-74.5654296875,-74.3701171875,-74.7607421875,-75.1025390625,-75.4443359375,-76.1767578125,-75.7861328125,-76.9580078125,-77.3974609375,-77.4462890625,-78.0322265625,-78.3251953125,-79.0576171875,-79.5947265625,-80.2783203125,-81.1083984375,-81.4501953125,-81.5966796875,-82.1826171875,-83.1103515625,-83.5986328125,-83.7939453125,-83.3544921875,-83.0615234375,-81.4990234375,-80.7666015625,-79.1064453125,-77.9833984375,-76.3232421875,-75.0048828125,-74.5166015625,-73.9306640625,-73.6376953125,-73.1982421875,-73.3447265625,-73.2958984375,-73.6865234375,-74.2236328125,-74.6630859375,-75.6884765625,-75.8837890625,-76.6650390625,-77.5927734375,-77.8369140625,-78.5693359375,-79.2529296875,-79.7900390625,-79.9365234375,-80.3271484375,-80.3271484375,-80.9130859375,-82.4755859375,-82.3291015625,-83.1591796875,-83.6962890625,-83.4521484375,-83.6474609375,-82.8173828125,-81.9873046875,-80.6689453125,-78.8623046875,-76.9580078125,-75.7861328125,-74.6142578125,-73.7841796875,-73.7841796875,-73.4423828125,-73.2958984375,-72.7099609375,-73.8330078125,-73.6865234375,-73.8818359375,-74.7119140625,-75.0537109375,-75.2978515625,-75.7373046875,-76.2744140625,-76.9091796875,-77.3486328125,-78.6181640625,-78.8134765625,-79.3994140625,-80.0341796875,-80.6689453125,-81.6943359375,-81.6455078125,-82.3779296875,-83.4033203125,-83.9892578125,-84.0380859375,-84.2822265625,-83.7939453125,-82.4755859375,-81.2060546875,-79.9365234375,-77.7880859375,-76.6650390625,-76.0791015625,-74.7119140625,-75.0048828125,-74.4189453125,-73.4423828125,-73.4912109375,-73.4912109375,-74.5654296875,-74.3701171875,-75.0048828125,-75.6884765625,-75.9814453125,-76.8603515625,-76.9091796875,-78.1787109375,-78.9599609375,-78.9111328125,-79.6923828125,-80.5712890625,-80.5224609375,-81.2548828125,-81.6455078125,-83.1591796875,-83.7451171875,-83.4521484375,-84.5751953125,-84.5751953125,-84.9169921875,-84.3310546875,-82.6220703125,-82.0361328125,-80.9619140625,-79.4970703125,-77.5927734375,-76.1279296875,-76.2744140625,-75.8349609375,-75.5419921875,-74.9072265625,-75.2001953125,-75.5908203125,-76.1767578125,-76.6162109375,-76.8115234375,-76.7626953125,-77.7880859375,-78.2275390625,-78.7646484375,-79.3994140625,-79.9853515625,-80.2783203125,-81.7431640625,-81.4501953125,-83.1103515625,-82.8173828125,-83.5498046875,-84.5263671875,-84.9658203125,-85.2587890625,-85.7470703125,-86.2841796875,-86.0400390625,-85.5029296875,-85.0634765625,-83.5986328125,-81.7919921875,-79.8876953125,-78.9111328125,-77.9833984375,-76.8603515625,-76.7626953125,-76.4697265625,-76.1279296875,-75.9326171875,-76.2744140625,-76.6650390625,-77.0068359375,-76.9091796875,-77.8369140625,-77.9833984375,-78.4228515625,-78.5693359375,-79.2529296875,-79.3505859375,-80.7177734375,-80.5712890625,-81.4990234375,-81.9384765625,-82.8662109375,-83.1103515625,-84.2822265625,-84.1357421875,-85.1611328125,-85.6005859375,-85.8935546875,-85.6005859375,-85.8935546875,-84.3310546875,-83.1103515625,-83.0126953125,-80.1806640625,-79.2041015625,-77.7392578125,-76.6650390625,-76.0302734375,-75.9326171875,-75.1513671875,-74.8583984375,-74.6630859375,-74.7607421875,-75.4931640625,-75.2978515625,-75.5419921875,-76.6650390625,-76.9580078125,-77.1533203125,-77.9833984375,-78.6669921875,-78.8623046875,-79.7412109375,-80.5712890625,-80.8642578125,-81.5478515625,-81.2060546875,-82.2802734375,-82.6708984375,-83.2568359375,-83.1591796875,-84.5263671875,-85.2587890625,-84.3798828125,-83.7451171875,-82.0849609375,-80.7666015625,-79.1064453125,-77.2509765625,-75.9814453125,-75.7373046875,-75.4931640625,-75.3955078125,-74.8583984375,-74.1259765625,-73.5400390625,-74.0771484375,-74.1748046875,-74.3701171875,-74.9560546875,-75.2490234375,-76.0791015625,-77.1044921875,-77.9833984375,-78.2763671875,-78.6181640625,-79.0087890625,-79.5947265625,-79.7412109375,-80.6689453125,-80.8642578125,-81.4990234375,-82.4267578125,-82.3779296875,-83.4033203125,-83.1591796875,-84.3798828125,-84.4287109375,-84.2822265625,-82.9150390625,-82.0849609375,-80.9619140625,-79.1552734375,-77.2998046875,-75.8349609375,-74.6142578125,-73.3447265625,-72.9541015625,-73.1494140625,-72.3681640625,-72.8076171875,-73.2958984375,-73.5400390625,-73.5888671875,-73.9794921875,-74.8583984375,-75.8349609375,-76.0791015625,-76.6650390625,-76.9091796875,-77.5439453125,-78.3251953125,-79.2529296875,-80.1318359375,-80.4248046875,-80.6201171875,-81.9384765625,-82.7197265625,-82.6708984375,-83.5498046875,-83.7939453125,-84.4287109375,-84.7216796875,-84.3310546875,-83.4033203125,-81.9384765625,-80.9130859375,-78.6669921875,-77.8857421875,-76.4208984375,-75.8837890625,-75.4443359375,-74.9072265625,-74.9072265625,-74.2724609375,-74.3701171875,-74.6142578125,-75.1025390625,-75.1513671875,-76.1767578125,-76.2744140625,-77.5927734375,-78.8623046875,-78.2763671875,-78.9599609375,-79.3994140625,-80.4248046875,-80.8642578125,-81.0107421875,-81.8896484375,-82.5244140625,-83.1103515625,-83.5009765625,-84.3798828125,-84.6240234375,-85.2099609375,-85.6494140625,-85.9912109375,-84.9169921875,-84.4775390625,-82.9638671875,-81.5966796875,-80.3271484375,-78.4228515625,-77.7880859375,-76.2744140625,-76.1767578125,-76.1279296875,-74.9072265625,-75.4931640625,-75.3955078125,-75.8349609375,-75.5419921875,-75.4443359375,-76.1767578125,-77.8369140625,-77.1533203125,-77.9345703125,-78.2275390625,-78.9599609375,-80.2294921875,-80.6689453125,-80.5224609375,-81.9384765625,-82.1337890625,-82.1826171875,-83.4033203125,-83.6474609375,-84.3310546875,-84.3310546875,-85.1123046875,-85.7470703125,-86.1865234375,-85.3076171875,-84.4775390625,-83.1103515625,-81.8408203125,-80.0341796875,-78.6669921875,-77.5439453125,-76.3720703125,-75.5908203125,-75.1513671875,-74.6142578125,-74.3701171875,-73.9794921875,-74.4189453125,-75.0537109375,-74.9560546875,-75.4443359375,-75.9326171875,-75.5908203125,-76.7138671875,-77.3974609375,-77.1044921875,-77.8857421875,-78.5205078125,-78.7646484375,-79.6923828125,-80.1318359375,-80.4736328125,-81.5966796875,-81.7919921875,-82.0361328125,-82.8173828125,-82.7685546875,-83.2080078125,-83.5009765625,-82.9638671875,-81.4990234375,-81.4990234375,-79.7900390625,-78.3740234375,-76.6650390625,-75.7861328125,-74.6142578125,-73.7841796875,-73.8330078125,-73.1494140625,-73.3935546875,-73.1005859375,-73.4912109375,-74.0283203125,-73.9306640625,-74.2236328125,-74.4189453125,-75.2001953125,-75.2490234375,-75.7373046875,-76.0302734375,-77.1044921875,-77.8369140625,-77.6416015625,-78.9111328125,-79.8876953125,-80.1318359375,-80.9619140625,-81.1083984375,-81.4013671875,-81.3525390625,-81.9873046875,-82.4267578125,-81.5966796875,-80.6689453125,-80.0830078125,-78.5205078125,-77.2021484375,-75.3466796875,-74.0283203125,-72.8564453125,-72.3193359375,-71.9287109375,-70.9033203125,-71.2451171875,-71.3916015625,-71.7822265625,-71.8310546875,-71.6357421875,-72.4658203125,-72.3193359375,-73.5400390625,-73.4912109375,-73.7353515625,-74.7119140625,-74.7119140625,-75.9814453125,-76.1767578125,-76.7138671875,-77.5439453125,-78.2763671875,-78.0322265625,-78.7158203125,-79.8876953125,-79.6435546875,-80.2783203125,-80.5712890625,-81.1083984375,-79.8876953125,-79.3505859375,-77.9833984375,-75.9326171875,-74.8583984375,-72.8076171875,-71.8310546875,-70.5126953125,-70.8544921875,-70.2197265625,-70.1708984375,-69.8779296875,-70.0244140625,-70.1708984375,-70.2685546875,-70.8056640625,-71.5869140625,-72.0263671875,-72.6611328125,-72.5146484375,-73.3447265625,-73.9794921875,-74.7119140625,-75.2001953125,-75.9326171875,-76.4208984375,-76.8115234375,-77.2998046875,-77.5927734375,-78.1787109375,-79.6923828125,-80.1806640625,-80.6201171875,-80.5712890625,-80.6201171875,-79.2529296875,-78.1787109375,-77.1044921875,-76.1279296875,-73.8818359375,-73.2958984375,-72.2705078125,-71.9775390625,-71.6845703125,-70.5615234375,-71.3427734375,-70.8056640625,-70.7568359375,-71.1474609375,-71.4892578125,-71.8310546875,-71.9775390625,-72.5146484375,-72.8076171875,-73.2470703125,-73.9794921875,-74.4677734375,-75.8349609375,-76.3232421875,-76.7626953125,-77.7392578125,-78.0810546875,-78.8134765625,-78.9599609375,-79.3994140625,-79.5458984375,-80.9619140625,-81.4990234375,-81.4501953125,-80.6201171875,-79.4482421875,-78.4228515625,-77.0068359375,-75.3955078125,-73.8818359375,-73.3447265625,-72.2705078125,-71.6845703125,-71.6357421875,-71.0498046875,-72.1728515625,-72.1728515625,-72.2216796875,-73.0029296875,-72.5146484375,-73.2470703125,-73.8818359375,-74.1259765625,-75.1513671875,-75.4443359375,-76.0791015625,-76.5673828125,-76.5185546875,-76.5673828125,-76.9091796875,-77.0068359375,-77.2509765625,-77.9833984375,-78.9111328125,-79.4970703125,-79.9853515625,-80.3759765625,-79.7412109375,-79.4970703125,-78.3740234375,-77.2998046875,-76.0302734375,-74.5654296875,-73.2958984375,-72.2705078125,-71.1962890625,-71.2451171875,-70.6591796875,-70.2197265625,-69.9755859375,-70.0732421875,-70.5126953125,-70.7568359375,-70.7568359375,-71.2451171875,-71.7822265625,-72.6123046875,-73.3935546875,-73.9794921875,-73.8818359375,-74.4189453125,-74.8095703125,-76.0302734375,-76.1767578125,-76.5185546875,-77.0068359375,-77.4462890625,-78.2275390625,-78.8134765625,-79.0087890625,-79.3505859375,-78.7158203125,-78.0810546875,-76.5185546875,-76.0302734375,-73.8330078125,-72.2705078125,-71.3916015625,-70.3662109375,-70.1708984375,-70.1708984375,-69.5361328125,-69.2919921875,-68.9501953125,-69.0966796875,-69.5361328125,-69.4384765625,-70.4150390625,-70.7568359375,-71.6357421875,-71.9775390625,-71.7822265625,-71.5380859375,-71.6845703125,-72.1240234375,-72.6611328125,-73.9306640625,-74.3212890625,-75.0537109375,-75.1025390625,-75.8349609375,-76.6162109375,-76.8603515625,-76.7138671875,-75.6884765625,-75.4931640625,-73.6865234375,-72.2216796875,-70.7568359375,-70.1708984375,-68.4619140625,-67.4365234375,-67.9736328125,-67.1435546875,-66.9970703125,-66.8017578125,-66.2646484375,-66.7041015625,-67.1923828125,-67.5830078125,-68.0712890625,-68.5595703125,-69.1943359375,-69.4384765625,-69.9755859375,-70.0244140625,-70.8056640625,-71.5869140625,-71.9775390625,-72.6123046875,-72.8564453125,-73.6376953125,-74.6142578125,-75.0537109375,-75.7861328125,-75.1513671875,-75.3955078125,-74.4677734375,-73.8330078125,-71.7822265625,-71.2451171875,-69.5849609375,-67.7294921875,-66.8017578125,-65.5322265625,-66.0693359375,-65.1904296875,-64.7021484375,-65.0927734375,-65.3857421875,-65.8251953125,-65.8251953125,-65.7763671875,-66.8017578125,-66.8505859375,-68.0712890625,-68.6083984375,-69.7314453125,-69.7802734375,-70.6103515625,-71.1962890625,-71.6357421875,-72.4169921875,-72.7587890625,-73.4423828125,-73.6376953125,-74.1259765625,-75.4931640625,-74.9560546875,-75.0537109375,-73.9306640625,-72.4658203125,-71.2939453125,-70.2197265625,-68.8525390625,-67.2900390625,-66.7529296875,-66.7041015625,-66.1669921875,-65.5322265625,-65.4345703125,-65.4833984375,-65.6298828125,-66.4599609375,-66.3623046875,-67.1435546875,-67.7294921875,-68.0712890625,-69.6337890625,-70.5615234375,-70.7080078125,-72.0263671875,-72.6611328125,-72.5634765625,-73.3447265625,-74.2236328125,-74.6630859375,-75.3466796875,-76.0791015625,-76.3232421875,-76.8603515625,-75.6884765625,-74.7119140625,-74.0283203125,-73.1494140625,-71.8798828125,-70.4150390625,-69.0478515625,-68.1689453125,-68.0712890625,-67.5830078125,-67.6806640625,-67.7294921875,-67.3876953125,-67.4853515625,-68.1689453125,-68.6083984375,-69.2431640625,-69.9267578125,-70.3173828125,-70.6103515625,-71.1962890625,-71.3916015625,-72.2705078125,-72.9052734375,-73.2958984375,-73.5400390625,-74.4677734375,-74.9560546875,-75.8349609375,-76.5673828125,-76.4697265625,-77.1533203125,-75.9326171875,-75.4443359375,-74.1259765625,-72.7587890625,-71.3427734375,-69.4873046875,-68.5107421875,-67.3388671875,-67.4365234375,-67.0458984375,-66.5576171875,-66.1181640625,-66.0693359375,-66.4111328125,-67.0458984375,-67.3388671875,-67.0458984375,-68.2666015625,-68.8525390625,-69.3408203125,-70.2197265625,-70.2685546875,-70.8544921875,-71.1474609375,-72.4169921875,-72.6611328125,-72.9541015625,-73.5888671875,-74.0771484375,-74.5654296875,-74.6630859375,-74.5654296875,-73.8330078125,-72.9052734375,-71.8798828125,-70.1708984375,-68.6572265625,-67.2412109375,-66.8017578125,-65.8740234375,-66.2646484375,-65.9228515625,-64.7509765625,-65.2392578125,-65.0927734375,-65.4833984375,-65.8251953125,-66.1669921875,-66.5087890625,-67.6806640625,-67.7783203125,-68.3642578125,-68.9501953125,-69.4873046875,-70.3173828125,-70.2685546875,-71.0009765625,-71.4404296875,-71.8310546875,-72.6123046875,-73.1005859375,-73.5888671875,-73.4912109375,-72.0751953125,-71.4404296875,-70.1220703125,-68.2666015625,-66.7041015625,-65.7275390625,-63.9697265625,-64.3603515625,-63.4814453125,-63.2861328125,-63.8232421875,-63.1884765625,-63.9208984375,-64.5556640625,-64.3115234375,-64.9951171875,-65.0439453125,-65.7275390625,-66.4111328125,-66.8994140625,-67.6318359375,-68.7060546875,-68.6083984375,-69.1455078125,-70.3662109375,-71.5380859375,-70.7568359375,-71.9775390625,-72.4658203125,-72.4169921875,-73.0029296875,-71.4892578125,-71.1474609375,-70.0732421875,-68.5107421875,-66.8017578125,-64.6044921875,-63.8232421875,-63.1396484375,-62.8466796875,-62.6513671875,-62.2119140625,-62.6513671875,-62.0166015625,-63.3837890625,-63.2861328125,-63.0419921875,-64.1650390625,-65.0927734375,-65.4345703125,-65.9716796875,-67.0458984375,-67.9736328125,-68.5107421875,-69.2919921875,-69.8291015625,-70.4638671875,-70.9521484375,-71.8798828125,-72.3681640625,-72.5146484375,-73.0517578125,-73.2470703125,-71.8798828125,-70.7568359375,-69.4384765625,-68.3154296875,-65.8740234375,-64.5556640625,-64.3115234375,-63.5791015625,-63.7744140625,-63.8232421875,-63.9208984375,-63.8720703125,-64.9462890625,-65.7763671875,-65.8251953125,-66.4111328125,-66.4111328125,-68.0712890625,-68.8525390625,-69.3896484375,-70.5126953125,-70.7568359375,-71.8310546875,-72.3193359375,-73.3447265625,-73.5888671875,-74.6630859375,-74.9072265625,-75.7861328125,-76.0302734375,-75.5419921875,-74.6630859375,-72.9541015625,-71.7822265625,-70.3662109375,-68.5595703125,-66.8994140625,-66.7041015625,-65.7763671875,-66.1669921875,-66.1669921875,-65.7763671875,-66.2646484375,-66.7041015625,-67.1923828125,-67.3388671875,-68.2177734375,-68.8525390625,-69.6826171875,-71.0498046875,-71.3916015625,-71.8310546875,-73.1005859375,-73.1005859375,-74.3212890625,-75.0537109375,-75.5908203125,-76.1767578125,-76.6650390625,-76.9091796875,-78.0322265625,-78.0810546875,-77.1533203125,-75.9326171875,-75.1513671875,-74.2236328125,-72.4658203125,-70.9033203125,-69.9755859375,-68.6083984375,-68.9501953125,-68.5595703125,-67.5341796875,-68.1201171875,-68.0712890625,-68.4619140625,-69.1943359375,-69.4873046875,-70.3662109375,-70.3662109375,-71.7333984375,-72.6123046875,-73.1982421875,-73.4912109375,-73.7841796875,-74.9072265625,-75.6884765625,-76.1279296875,-76.6162109375,-77.8369140625,-77.8857421875,-78.2763671875,-78.8623046875,-79.1064453125,-78.1298828125,-76.7626953125,-76.0791015625,-74.5166015625,-73.2470703125,-70.8544921875,-70.3662109375,-69.7314453125,-69.2919921875,-69.0966796875,-69.2431640625,-69.2919921875,-69.2431640625,-69.2431640625,-70.0244140625,-70.1708984375,-70.5615234375,-71.3427734375,-72.2705078125,-72.0751953125,-73.4423828125,-74.1748046875,-74.5166015625,-75.2490234375,-75.9326171875,-76.2744140625,-77.3974609375,-77.8857421875,-79.1552734375,-79.0576171875,-79.2529296875,-78.3251953125,-77.6904296875,-76.9580078125,-75.1025390625,-73.8330078125,-71.5380859375,-70.2685546875,-69.3896484375,-68.9013671875,-68.4619140625,-67.8759765625,-67.6318359375,-67.7294921875,-68.6572265625,-68.6572265625,-69.1455078125,-69.8291015625,-69.8291015625,-70.0732421875,-70.7080078125,-71.3916015625,-72.0263671875,-72.9052734375,-73.7353515625,-74.0771484375,-74.9072265625,-75.0537109375,-76.0791015625,-76.3232421875,-77.1533203125,-77.4951171875,-77.8369140625,-76.9580078125,-77.1044921875,-75.8349609375,-73.8818359375,-72.3681640625,-70.7080078125,-69.4873046875,-68.1689453125,-67.3388671875,-66.8505859375,-67.1435546875,-66.3623046875,-66.4111328125,-66.6064453125,-67.0458984375,-67.8271484375,-67.7294921875,-69.0966796875,-69.7314453125,-70.4150390625,-70.8544921875,-71.5380859375,-71.9775390625,-72.7587890625,-73.8330078125,-73.9306640625,-74.6142578125,-75.8349609375,-75.7373046875,-76.8603515625,-77.4951171875,-77.1044921875,-77.1533203125,-76.4697265625,-75.5908203125,-74.0771484375,-72.6123046875,-71.1474609375,-69.4873046875,-68.3642578125,-68.0712890625,-67.8759765625,-67.2412109375,-67.0458984375,-67.3876953125,-67.6806640625,-68.8037109375,-68.6572265625,-69.1455078125,-70.0244140625,-69.8779296875,-70.6103515625,-71.5380859375,-72.3193359375,-73.1005859375,-73.7353515625,-74.1259765625,-74.6142578125,-75.4931640625,-75.7861328125,-77.3974609375,-77.4462890625,-78.0322265625,-78.5693359375,-78.3251953125,-77.1533203125,-76.5185546875,-75.5908203125,-74.1259765625,-71.8310546875,-70.3173828125,-69.1455078125,-68.8037109375,-68.7548828125,-68.4130859375,-68.3642578125,-68.4619140625,-68.7060546875,-68.9501953125,-69.4873046875,-70.1708984375,-70.5615234375,-71.5869140625,-71.5380859375,-73.4423828125,-73.4912109375,-74.5654296875,-75.1025390625,-75.4931640625,-76.3720703125,-76.5673828125,-77.8857421875,-78.4716796875,-78.6181640625,-79.4482421875,-79.7412109375,-79.8876953125,-77.9345703125,-77.4951171875,-76.3720703125,-75.0537109375,-72.9541015625,-71.5380859375,-70.9521484375,-70.2197265625,-69.6826171875,-69.8779296875,-69.3408203125,-69.0966796875,-69.4873046875,-69.1943359375,-70.2197265625,-71.0986328125,-70.9033203125,-71.8310546875,-72.2705078125,-73.1982421875,-73.6865234375,-74.3212890625,-75.1513671875,-75.8349609375,-76.4208984375,-77.1044921875,-78.1787109375,-77.7880859375,-78.8134765625,-79.1064453125,-79.5458984375,-78.6181640625,-78.1298828125,-77.1044921875,-75.5908203125,-74.3212890625,-73.2958984375,-71.6845703125,-71.1962890625,-71.1474609375,-71.5380859375,-70.8056640625,-70.6591796875,-70.5615234375,-70.6591796875,-71.1474609375,-72.0263671875,-71.7333984375,-73.2470703125,-73.6376953125,-73.8330078125,-73.9794921875,-75.5419921875,-75.4443359375,-76.2255859375,-76.2744140625,-77.2021484375,-78.2275390625,-78.6669921875,-79.5458984375,-79.6923828125,-80.7666015625,-79.5947265625,-78.8134765625,-77.5927734375,-76.4208984375,-75.4443359375,-73.3935546875,-72.7099609375,-71.6845703125,-70.4638671875,-70.7568359375,-70.5615234375,-70.3662109375,-69.8779296875,-70.6103515625,-70.8056640625,-71.0986328125,-71.9287109375,-72.2216796875,-72.8564453125,-73.8818359375,-73.3935546875,-74.5654296875,-74.9560546875,-75.5908203125,-76.3232421875,-76.9580078125,-77.4951171875,-77.8857421875,-78.4716796875,-79.0576171875,-79.3505859375,-79.2041015625,-78.2763671875,-78.0322265625,-77.0556640625,-74.6142578125,-73.1494140625,-71.8310546875,-70.7568359375,-70.1708984375,-69.0478515625,-69.7314453125,-68.9501953125,-68.5595703125,-68.5107421875,-68.8525390625,-69.3408203125,-70.1220703125,-70.4638671875,-71.0986328125,-72.1728515625,-72.8076171875,-73.2958984375,-73.8330078125,-74.2724609375,-74.7607421875,-75.7373046875,-76.1279296875,-76.5673828125,-77.8857421875,-77.8369140625,-78.5693359375,-79.2529296875,-78.4228515625,-77.5439453125,-76.4697265625,-75.0048828125,-73.2958984375,-71.6357421875,-70.1708984375,-69.7802734375,-69.0478515625,-69.8291015625,-69.2919921875,-68.2666015625,-68.3642578125,-68.9501953125,-68.9501953125,-69.7314453125,-70.3173828125,-71.2451171875,-71.9775390625,-72.1728515625,-72.8076171875,-73.0517578125,-74.3212890625,-74.3212890625,-74.7607421875,-75.6396484375,-75.9814453125,-76.9580078125,-77.3974609375,-77.3486328125,-78.8623046875,-78.9111328125,-77.5927734375,-76.9580078125,-75.2978515625,-73.7353515625,-72.8564453125,-71.0498046875,-69.4384765625,-68.5107421875,-68.6083984375,-68.5595703125,-68.0224609375,-68.0712890625,-68.6572265625,-69.1943359375,-69.0478515625,-69.5849609375,-70.2685546875,-70.4638671875,-71.4892578125,-72.4169921875,-72.9052734375,-73.7841796875,-74.4189453125,-75.5419921875,-75.6396484375,-76.2255859375,-77.5927734375,-77.5439453125,-77.5927734375,-78.9599609375,-79.0087890625,-78.1298828125,-77.9833984375,-76.7138671875,-75.8349609375,-73.8330078125,-72.3681640625,-70.4638671875,-69.3896484375,-69.3408203125,-68.8037109375,-68.3642578125,-67.5341796875,-68.3642578125,-68.5595703125,-68.6572265625,-69.5361328125,-69.3408203125,-70.4638671875,-70.9521484375,-71.9775390625,-72.9052734375,-73.5888671875,-73.6376953125,-74.1748046875,-75.2978515625,-76.1279296875,-76.5673828125,-76.6650390625,-77.7392578125,-77.9833984375,-78.5205078125,-79.0576171875,-78.3740234375,-77.2998046875,-76.2744140625,-74.4189453125,-73.2958984375,-71.0986328125,-70.0732421875,-69.5849609375,-69.1943359375,-68.9990234375,-68.4130859375,-68.6572265625,-68.5595703125,-68.9013671875,-68.9501953125,-69.2919921875,-69.5849609375,-70.3662109375,-71.2939453125,-71.4892578125,-72.4658203125,-73.1982421875,-73.1005859375,-74.7119140625,-75.0048828125,-76.1279296875,-77.0556640625,-77.2509765625,-77.7880859375,-78.7158203125,-78.6181640625,-79.0576171875,-78.5693359375,-77.1044921875,-75.9326171875,-73.8818359375,-72.4658203125,-70.8056640625,-68.4619140625,-68.0712890625,-67.8759765625,-67.1923828125,-67.1435546875,-67.2412109375,-67.6806640625,-68.1689453125,-68.8525390625,-68.9990234375,-69.3896484375,-70.8056640625,-71.3427734375,-71.6845703125,-73.3447265625,-73.3447265625,-74.2724609375,-75.3466796875,-75.6396484375,-76.8115234375,-77.4951171875,-77.9833984375,-79.0576171875,-79.1552734375,-79.9365234375,-79.4482421875,-79.1552734375,-77.4951171875,-75.6396484375,-74.2724609375,-72.0263671875,-70.0732421875,-68.4619140625,-67.3876953125,-67.3876953125,-67.6318359375,-67.2412109375,-67.3388671875,-67.7294921875,-68.0712890625,-68.4619140625,-69.9267578125,-70.8056640625,-71.4404296875,-72.7099609375,-73.0029296875,-74.2236328125,-74.7607421875,-76.0791015625,-76.7626953125,-76.8115234375,-77.6416015625,-78.5693359375,-79.4970703125,-80.1806640625,-80.8154296875,-81.1572265625,-81.8896484375,-80.3271484375,-79.1064453125,-78.1298828125,-76.2744140625,-74.0771484375,-72.3681640625,-70.7080078125,-71.0498046875,-71.0498046875,-70.8544921875,-70.7080078125,-71.3916015625,-71.6845703125,-71.8798828125,-72.6611328125,-73.2470703125,-74.4189453125,-74.9072265625,-76.0302734375,-77.0556640625,-77.9833984375,-78.9111328125,-79.5947265625,-80.5224609375,-81.5478515625,-81.6455078125,-82.9150390625,-83.1103515625,-84.1357421875,-84.6728515625,-85.3076171875,-84.3310546875,-83.1103515625,-81.7919921875,-79.2041015625,-78.2275390625,-76.0302734375,-74.5166015625,-74.0771484375,-74.3701171875,-73.9794921875,-74.0283203125,-74.0283203125,-74.7607421875,-75.3955078125,-75.4931640625,-76.7626953125,-77.2509765625,-78.2763671875,-79.2041015625,-80.3759765625,-80.2294921875,-81.3037109375,-82.7685546875,-83.3056640625,-84.0869140625,-84.2333984375,-85.9912109375,-86.4794921875,-86.8701171875,-87.9443359375,-87.9931640625,-87.1630859375,-86.5283203125,-85.5029296875,-83.5009765625,-81.8408203125,-79.9853515625,-78.0322265625,-76.9091796875,-76.2255859375,-76.3720703125,-76.0302734375,-76.2744140625,-76.6162109375,-76.4697265625,-78.1787109375,-78.3740234375,-78.5693359375,-80.0830078125,-80.3271484375,-81.3037109375,-82.2802734375,-82.7197265625,-83.6962890625,-84.3310546875,-85.0634765625,-85.9423828125,-86.8212890625,-87.5048828125,-88.1884765625,-88.8232421875,-89.8486328125,-89.7509765625,-88.2373046875,-87.5537109375,-86.6259765625,-84.7216796875,-82.6708984375,-81.5478515625,-79.6923828125,-79.2041015625,-79.8388671875,-79.3994140625,-78.9599609375,-79.2041015625,-79.4482421875,-79.4970703125,-79.3505859375,-80.7177734375,-81.8896484375,-81.8408203125,-83.4521484375,-84.2333984375,-84.2822265625,-84.5263671875,-86.0888671875,-86.6748046875,-87.1142578125,-87.9443359375,-88.5302734375,-89.5068359375,-89.7021484375,-89.8974609375,-90.4833984375,-89.6533203125,-88.5302734375,-87.7978515625,-85.8935546875,-84.1357421875,-82.6220703125,-81.4990234375,-81.0107421875,-80.5224609375,-80.4736328125,-80.1806640625,-80.1806640625,-80.6201171875,-80.6689453125,-81.8408203125,-82.3779296875,-83.1591796875,-83.6962890625,-84.4287109375,-85.6982421875,-85.8447265625,-86.7236328125,-87.7001953125,-87.8955078125,-88.4814453125,-89.0185546875,-89.9462890625,-90.6787109375,-91.0693359375,-91.2646484375,-91.8017578125,-91.8994140625,-90.3369140625,-89.9951171875,-88.5302734375,-87.0166015625,-85.4052734375,-83.5009765625,-81.7919921875,-81.4501953125,-82.0361328125,-81.4501953125,-80.7666015625,-81.2548828125,-81.2060546875,-82.2802734375,-81.9873046875,-82.7685546875,-83.4033203125,-84.4287109375,-85.5029296875,-86.0400390625,-86.0400390625,-87.3095703125,-88.1884765625,-88.5791015625,-88.3349609375,-89.6533203125,-90.2880859375,-90.8251953125,-91.2158203125,-91.6064453125,-92.7294921875,-92.7294921875,-91.2646484375,-90.2880859375,-89.2626953125,-87.3095703125,-85.5029296875,-84.7216796875,-83.3544921875,-82.9150390625,-82.3779296875,-82.0361328125,-82.0849609375,-82.1826171875,-82.5732421875,-82.5732421875,-83.1103515625,-83.4521484375,-84.4287109375,-84.6240234375,-85.2099609375,-86.3330078125,-86.5771484375,-87.4560546875,-87.8955078125,-88.1884765625,-89.7509765625,-89.9951171875,-90.6298828125,-91.1181640625,-91.7529296875,-92.5341796875,-92.5830078125,-91.9970703125,-90.1416015625,-89.2138671875,-87.7490234375,-86.0400390625,-85.0146484375,-82.6708984375,-81.9384765625,-81.3037109375,-81.4501953125,-80.7177734375,-80.5712890625,-80.4248046875,-80.7666015625,-81.4013671875,-82.3779296875,-82.3779296875,-82.3779296875,-84.1357421875,-84.4287109375,-85.2099609375,-85.7470703125,-86.3818359375,-87.4072265625,-87.5048828125,-88.8720703125,-88.9697265625,-89.4091796875,-90.4345703125,-90.9716796875,-91.4111328125,-91.7529296875,-91.5576171875,-90.2880859375,-88.7744140625,-86.8212890625,-85.1611328125,-83.4521484375,-81.9873046875,-80.2783203125,-80.1318359375,-80.1806640625,-79.2041015625,-78.7646484375,-79.0576171875,-79.4970703125,-79.7900390625,-80.1806640625,-81.3525390625,-81.4990234375,-82.8173828125,-82.7685546875,-83.9892578125,-84.7216796875,-85.6494140625,-85.6982421875,-86.3818359375,-87.3583984375,-88.2861328125,-88.1884765625,-89.0185546875,-89.5556640625,-90.1416015625,-90.5322265625,-89.6533203125,-88.2373046875,-86.5283203125,-86.3330078125,-83.8916015625,-82.4755859375,-80.7177734375,-79.4970703125,-79.5458984375,-79.7412109375,-78.0810546875,-78.4716796875,-79.3017578125,-79.5458984375,-79.3017578125,-80.3271484375,-80.3271484375,-81.5966796875,-82.4755859375,-83.0126953125,-83.3056640625,-84.6728515625,-85.1611328125,-85.0146484375,-85.9912109375,-87.0166015625,-87.8955078125,-88.8232421875,-88.6279296875,-90.3857421875,-90.4345703125,-90.0927734375,-89.7998046875,-87.6025390625,-86.6748046875,-85.5517578125,-83.3056640625,-82.0361328125,-79.8388671875,-78.6669921875,-78.6669921875,-78.1787109375,-78.1787109375,-77.5927734375,-78.1787109375,-79.4970703125,-78.9111328125,-79.9853515625,-80.1318359375,-80.4248046875,-82.2314453125,-82.2314453125,-83.0126953125,-83.7451171875,-84.8681640625,-85.5029296875,-85.5029296875,-86.2841796875,-86.7724609375,-87.9443359375,-88.1396484375,-88.7744140625,-89.4580078125,-89.8974609375,-89.5556640625,-87.7490234375,-86.8212890625,-85.7470703125,-83.5498046875,-81.4990234375,-79.4482421875,-79.0576171875,-77.8369140625,-77.5927734375,-77.1044921875,-77.3486328125,-77.9833984375,-77.7392578125,-78.4716796875,-78.7158203125,-78.9599609375,-80.0830078125,-80.8154296875,-81.1083984375,-81.7431640625,-82.5244140625,-83.0615234375,-83.6474609375,-84.8681640625,-85.0634765625,-85.8447265625,-85.8447265625,-86.5283203125,-87.6025390625,-88.0908203125,-88.5791015625,-87.5537109375,-86.2841796875,-84.7705078125,-83.4521484375,-81.6943359375,-79.9853515625,-77.9833984375,-76.9580078125,-76.6162109375,-76.0302734375,-75.5908203125,-75.3955078125,-75.5908203125,-75.8837890625,-76.4208984375,-77.3486328125,-77.4462890625,-78.3251953125,-78.5205078125,-79.6435546875,-81.0107421875,-81.2548828125,-82.2314453125,-82.9638671875,-83.0126953125,-83.9892578125,-84.7216796875,-85.2587890625,-85.4052734375,-86.6259765625,-86.9677734375,-87.4072265625,-86.2353515625,-84.9658203125,-83.9892578125,-81.6943359375,-79.3505859375,-77.7880859375,-76.1767578125,-75.2001953125,-75.0048828125,-74.9072265625,-74.5166015625,-74.8583984375,-74.8583984375,-75.2001953125,-76.1279296875,-76.4697265625,-77.0556640625,-78.0810546875,-78.9599609375,-79.8876953125,-80.7666015625,-81.3037109375,-82.6220703125,-82.8173828125,-84.1845703125,-84.6240234375,-85.6494140625,-86.7236328125,-87.2607421875,-88.3349609375,-88.5302734375,-89.5556640625,-87.8466796875,-86.1376953125,-85.2099609375,-83.0615234375,-81.6455078125,-79.0087890625,-77.2998046875,-76.4697265625,-76.6162109375,-76.0791015625,-75.6396484375,-76.2744140625,-76.0791015625,-76.7138671875,-77.7392578125,-78.6181640625,-79.4970703125,-80.0830078125,-81.0595703125,-82.3291015625,-83.2080078125,-84.0380859375,-85.1123046875,-85.5029296875,-86.8212890625,-87.5537109375,-88.6767578125,-89.4580078125,-90.0927734375,-90.6787109375,-91.5087890625,-90.8740234375,-90.0927734375,-89.1650390625,-87.0654296875,-85.4052734375,-84.1845703125,-82.1826171875,-81.3037109375,-81.7431640625,-80.9619140625,-81.2548828125,-81.2548828125,-81.4501953125,-82.3779296875,-82.8662109375,-83.4521484375,-83.9892578125,-84.3798828125,-85.6494140625,-86.6748046875,-87.4072265625,-88.4326171875,-89.5556640625,-89.6044921875,-90.7763671875,-91.6552734375,-92.1923828125,-93.3642578125,-93.9990234375,-94.4873046875,-95.7568359375,-95.6103515625,-94.6337890625,-92.9248046875,-91.6552734375,-91.2646484375,-88.3349609375,-87.0166015625,-85.7958984375,-84.9169921875,-84.9169921875,-84.9169921875,-84.5751953125,-84.7216796875,-85.3564453125,-85.4052734375,-86.3330078125,-86.7724609375,-86.7724609375,-87.7490234375,-88.7255859375,-89.3603515625,-90.1416015625,-90.5322265625,-91.3134765625,-92.4853515625,-93.2177734375,-93.3642578125,-94.2919921875,-94.6826171875,-96.0498046875,-96.5869140625,-97.1728515625,-96.7333984375,-95.2685546875,-94.4384765625,-93.7548828125,-91.0693359375,-89.8486328125,-87.9931640625,-86.8701171875,-86.9677734375,-86.6259765625,-86.4306640625,-85.8935546875,-85.3076171875,-86.5283203125,-86.2841796875,-86.6748046875,-87.9443359375,-88.4326171875,-89.2138671875,-90.3857421875,-90.3857421875,-91.3134765625,-91.8994140625,-91.8505859375,-92.5341796875,-93.8037109375,-94.0478515625,-95.1220703125,-95.7080078125,-96.4892578125,-96.8310546875,-96.3427734375,-95.7568359375,-94.4384765625,-93.8037109375,-92.3388671875,-90.4345703125,-89.4580078125,-87.8466796875,-86.8212890625,-86.9677734375,-86.6748046875,-86.2841796875,-86.5771484375,-86.7724609375,-86.6748046875,-87.6513671875,-88.0908203125,-88.2373046875,-89.9951171875,-89.8974609375,-90.4833984375,-90.9228515625,-91.6064453125,-92.9248046875,-93.2177734375,-94.2919921875,-94.9755859375,-95.1708984375,-96.3916015625,-96.8310546875,-96.8798828125,-96.9775390625,-96.5380859375,-94.4873046875,-93.9013671875,-92.7294921875,-90.9716796875,-89.0673828125,-87.3095703125,-86.7724609375,-86.0400390625,-85.6982421875,-85.1123046875,-84.9658203125,-85.5029296875,-85.8447265625,-86.1865234375,-86.7724609375,-86.9189453125,-87.4560546875,-88.1396484375,-89.2138671875,-89.6533203125,-90.9228515625,-91.2158203125,-91.9482421875,-92.4365234375,-92.7783203125,-94.1455078125,-93.8037109375,-94.4384765625,-95.1220703125,-95.3173828125,-95.5615234375,-94.2431640625,-93.2177734375,-91.4599609375,-89.9951171875,-88.1884765625,-86.6259765625,-85.1123046875,-85.1123046875,-84.3798828125,-83.9892578125,-83.5498046875,-83.6474609375,-84.5263671875,-84.6240234375,-84.7705078125,-85.1611328125,-85.8447265625,-86.3818359375,-86.9677734375,-87.8466796875,-88.8720703125,-88.3837890625,-89.7509765625,-90.0439453125,-91.0693359375,-91.3623046875,-91.6552734375,-91.8994140625,-93.1689453125,-93.4130859375,-93.5107421875,-92.7783203125,-92.1435546875,-90.5322265625,-89.3603515625,-87.7490234375,-85.8935546875,-84.6240234375,-84.0380859375,-83.4033203125,-82.8662109375,-82.5732421875,-83.1591796875,-83.0615234375,-83.6962890625,-83.6962890625,-84.2333984375,-85.0634765625,-85.3076171875,-86.1376953125,-87.4072265625,-88.0419921875,-88.4326171875,-88.8232421875,-90.2880859375,-89.9462890625,-90.8740234375,-90.9228515625,-92.2412109375,-92.5341796875,-92.8271484375,-93.2666015625,-93.1689453125,-91.8505859375,-91.3623046875,-90.1904296875,-88.2373046875,-85.9912109375,-84.5751953125,-83.1103515625,-82.1826171875,-82.4267578125,-82.4755859375,-82.1826171875,-81.8896484375,-82.0849609375,-83.0126953125,-83.1103515625,-83.6474609375,-83.3056640625,-84.4775390625,-85.0634765625,-85.5517578125,-86.3330078125,-86.5771484375,-87.6513671875,-88.5302734375,-88.7744140625,-89.6044921875,-90.2392578125,-90.9228515625,-91.2646484375,-91.8505859375,-91.8994140625,-92.5830078125,-91.3134765625,-91.1669921875,-88.6279296875,-87.8955078125,-85.7958984375,-83.7939453125,-82.3779296875,-81.3525390625,-81.3525390625,-81.2060546875,-80.4248046875,-80.9130859375,-80.1806640625,-81.2548828125,-81.4990234375,-82.0361328125,-82.8173828125,-83.4521484375,-84.6240234375,-84.3798828125,-85.3564453125,-85.8935546875,-86.8212890625,-86.9189453125,-87.4072265625,-88.6279296875,-89.1162109375,-89.6044921875,-90.2392578125,-90.8251953125,-90.9228515625,-90.9716796875,-89.7998046875,-88.7744140625,-87.5048828125,-86.1376953125,-84.3798828125,-83.3544921875,-81.2548828125,-81.2548828125,-80.5224609375,-80.9619140625,-80.2294921875,-80.3271484375,-80.3759765625,-80.7666015625,-81.4990234375,-81.3525390625,-82.1826171875,-83.2568359375,-83.4521484375,-83.9892578125,-84.7216796875,-85.9912109375,-86.7724609375,-87.3583984375,-87.5537109375,-88.2373046875,-88.8232421875,-89.1650390625,-90.2392578125,-90.9228515625,-90.4833984375,-90.6298828125,-89.7021484375,-88.1884765625,-87.4072265625,-85.8935546875,-84.4287109375,-82.6220703125,-81.0595703125,-80.1806640625,-79.8876953125,-79.4970703125,-78.9599609375,-78.8623046875,-79.5458984375,-79.2529296875,-79.6435546875,-80.3271484375,-80.6201171875,-81.1572265625,-82.0361328125,-82.3291015625,-83.4033203125,-83.7451171875,-84.4287109375,-85.4052734375,-85.7958984375,-85.9912109375,-86.6259765625,-87.1630859375,-88.1884765625,-88.1884765625,-89.0185546875,-89.3115234375,-88.3349609375,-87.7490234375,-86.6259765625,-84.6240234375,-83.5009765625,-82.2314453125,-79.3017578125,-78.6669921875,-78.2763671875,-78.0810546875,-78.3251953125,-77.1533203125,-77.5439453125,-77.2021484375,-77.9345703125,-78.8623046875,-78.9599609375,-79.3994140625,-80.2294921875,-80.6689453125,-81.6455078125,-81.7431640625,-83.0615234375,-83.2080078125,-84.6240234375,-84.7216796875,-85.1611328125,-85.7958984375,-86.5283203125,-87.4072265625,-87.0166015625,-88.1396484375,-87.4560546875,-86.8212890625,-85.7958984375,-84.3310546875,-82.7685546875,-80.8642578125,-80.1318359375,-78.5205078125,-78.0322265625,-77.3974609375,-77.7880859375,-77.7880859375,-77.5439453125,-77.5439453125,-77.7392578125,-79.0087890625,-79.1552734375,-79.4970703125,-80.4736328125,-81.4013671875,-81.7919921875,-82.6708984375,-83.3544921875,-83.8916015625,-83.8427734375,-84.8681640625,-86.0400390625,-86.0400390625,-86.7236328125,-87.1630859375,-87.8955078125,-88.2861328125,-88.0419921875,-87.2119140625,-86.3818359375,-84.6240234375,-83.7451171875,-81.5478515625,-80.8154296875,-78.7646484375,-78.0322265625,-77.8857421875,-78.5205078125,-77.6416015625,-77.6416015625,-78.0810546875,-78.0322265625,-78.5693359375,-78.8623046875,-80.0341796875,-80.1806640625,-80.7666015625,-81.8896484375,-82.1826171875,-82.8173828125,-83.6962890625,-84.4287109375,-84.8193359375,-84.9169921875,-85.6005859375,-86.2353515625,-87.2119140625,-87.8466796875,-88.3837890625,-88.3349609375,-88.2373046875,-87.4072265625,-85.3076171875,-84.3310546875,-82.6708984375,-80.6689453125,-79.5458984375,-77.9345703125,-77.5927734375,-77.6904296875,-76.8603515625,-76.3232421875,-77.6416015625,-77.2021484375,-77.8369140625,-78.4228515625,-79.1064453125,-79.4482421875,-80.1806640625,-80.7666015625,-81.4013671875,-81.6943359375,-82.8173828125,-83.4521484375,-84.1357421875,-84.4775390625,-85.2587890625,-85.6982421875,-85.8447265625,-86.8212890625,-87.5048828125,-87.6513671875,-88.2373046875,-87.5537109375,-85.8447265625,-85.0146484375,-82.7685546875,-81.2548828125,-79.8388671875,-78.7158203125,-78.5693359375,-78.3740234375,-77.9345703125,-77.9345703125,-78.4716796875,-78.4228515625,-79.0576171875,-79.6435546875,-79.6435546875,-80.1806640625,-81.4990234375,-82.0849609375,-82.5732421875,-82.4755859375,-83.9404296875,-84.5263671875,-85.6005859375,-85.6982421875,-86.1865234375,-87.3583984375,-87.1142578125,-87.8955078125,-88.3837890625,-88.5791015625,-88.6279296875,-88.0419921875,-87.0166015625,-85.6982421875,-84.7216796875,-82.6708984375,-81.2548828125,-80.2294921875,-79.4482421875,-78.2275390625,-78.6181640625,-77.9345703125,-78.3251953125,-78.0810546875,-78.5693359375,-79.0576171875,-79.3505859375,-79.4482421875,-80.8154296875,-81.1572265625,-81.9873046875,-82.2802734375,-82.9150390625,-83.7939453125,-84.7216796875,-85.1123046875,-85.0634765625,-85.8447265625,-86.2841796875,-87.3583984375,-87.8955078125,-88.2861328125,-88.8232421875,-88.9208984375,-87.7978515625,-86.9189453125,-85.3564453125,-83.9404296875,-82.3291015625,-81.0595703125,-79.2529296875,-79.2041015625,-78.9599609375,-78.6669921875,-78.2275390625,-77.7880859375,-77.8369140625,-78.5693359375,-79.0087890625,-79.5458984375,-79.7900390625,-80.6201171875,-80.8154296875,-81.4013671875,-81.8408203125,-82.4267578125,-83.1103515625,-83.8427734375,-84.6240234375,-84.8681640625,-85.2587890625,-86.3330078125,-86.9677734375,-87.1630859375,-87.2607421875,-88.3349609375,-87.2119140625,-86.2353515625,-85.0634765625,-83.9404296875,-82.2314453125,-81.3037109375,-79.5458984375,-79.2529296875,-78.4228515625,-78.4228515625,-77.3974609375,-77.0556640625,-77.8369140625,-77.7392578125,-78.1298828125,-78.3251953125,-78.8134765625,-79.3505859375,-79.7900390625,-80.3271484375,-81.0107421875,-81.5966796875,-82.0361328125,-82.8173828125,-83.3056640625,-83.4521484375,-84.0869140625,-84.0869140625,-85.1123046875,-85.4052734375,-85.9912109375,-86.7236328125,-86.6748046875,-85.6494140625,-84.4287109375,-83.7939453125,-81.5478515625,-80.2294921875,-78.9111328125,-76.7626953125,-76.0791015625,-75.4443359375,-74.2236328125,-74.2724609375,-73.7353515625,-73.6376953125,-73.9306640625,-74.1748046875,-74.7119140625,-74.7607421875,-75.5908203125,-75.5908203125,-76.2255859375,-76.8115234375,-77.2998046875,-78.2275390625,-78.5205078125,-79.1552734375,-79.4482421875,-80.0830078125,-80.7177734375,-81.1572265625,-81.6943359375,-82.2802734375,-82.6708984375,-82.5244140625,-80.7177734375,-80.0341796875,-79.2041015625,-77.3974609375,-75.2490234375,-73.3935546875,-72.0263671875,-70.7080078125,-69.9755859375,-70.2685546875,-70.2197265625,-70.0732421875,-69.1943359375,-69.9267578125,-70.6591796875,-71.1474609375,-71.4892578125,-72.1240234375,-73.0517578125,-73.9306640625,-73.9306640625,-74.9072265625,-75.6396484375,-76.0302734375,-76.4697265625,-77.3486328125,-77.6416015625,-78.4716796875,-78.9599609375,-79.6923828125,-80.4248046875,-80.7177734375,-79.6923828125,-78.8623046875,-77.4951171875,-75.2490234375,-74.1259765625,-71.9287109375,-70.3662109375,-68.9501953125,-69.6337890625,-69.4384765625,-69.2919921875,-68.9013671875,-69.2919921875,-70.1708984375,-69.6337890625,-70.7080078125,-71.5380859375,-71.9287109375,-72.3681640625,-72.8564453125,-73.7353515625,-74.7119140625,-75.1513671875,-76.0791015625,-76.4208984375,-77.3486328125,-78.3251953125,-78.1298828125,-79.2041015625,-79.4970703125,-80.9619140625,-81.4013671875,-80.0830078125,-80.1318359375,-79.3505859375,-77.2509765625,-76.5185546875,-74.5166015625,-72.7587890625,-71.6845703125,-70.3173828125,-70.5615234375,-69.8779296875,-69.1943359375,-69.9267578125,-69.8779296875,-70.1220703125,-71.0009765625,-71.4404296875,-72.3193359375,-72.8076171875,-73.6376953125,-74.2236328125,-74.2236328125,-75.3955078125,-76.2255859375,-77.3486328125,-77.9345703125,-77.9345703125,-79.4482421875,-79.6435546875,-80.0341796875,-81.3525390625,-81.6455078125,-81.9873046875,-81.9873046875,-81.0595703125,-79.8388671875,-78.2763671875,-77.5439453125,-75.1025390625,-74.1748046875,-72.8564453125,-72.3193359375,-72.5146484375,-71.8310546875,-71.9287109375,-72.3193359375,-73.2470703125,-72.5634765625,-73.0517578125,-73.7841796875,-74.1748046875,-74.8583984375,-75.8837890625,-76.3720703125,-76.8603515625,-77.5927734375,-78.1298828125,-78.9111328125,-78.8134765625,-79.7900390625,-80.5224609375,-80.7177734375,-81.4501953125,-82.4267578125,-82.8662109375,-82.3779296875,-81.7431640625,-80.3759765625,-79.2041015625,-77.8857421875,-76.5673828125,-75.2978515625,-73.8818359375,-74.0283203125,-73.7841796875,-73.6376953125,-73.1494140625,-73.6376953125,-73.8330078125,-74.2236328125,-73.9794921875,-74.8095703125,-75.5419921875,-75.5419921875,-77.0068359375,-76.5673828125,-77.8857421875,-78.2763671875,-78.0322265625,-79.3994140625,-79.5947265625,-80.0341796875,-81.4501953125,-80.9130859375,-82.0849609375,-82.5732421875,-82.8662109375,-82.5244140625,-81.6943359375,-80.8642578125,-79.3017578125,-78.1298828125,-76.6162109375,-74.9560546875,-73.1982421875,-72.2216796875,-71.8798828125,-72.0751953125,-70.9521484375,-70.3662109375,-70.7568359375,-70.8056640625,-71.6357421875,-71.2939453125,-71.7333984375,-72.7587890625,-72.9052734375,-72.5634765625,-73.2958984375,-73.6376953125,-74.5166015625,-75.0537109375,-75.8837890625,-76.0791015625,-76.9091796875,-77.1044921875,-77.8369140625,-78.4228515625,-78.5205078125,-78.6181640625,-78.7646484375,-77.1533203125,-75.7373046875,-74.5166015625,-72.9541015625,-70.6591796875,-68.9990234375,-68.3642578125,-66.7529296875,-66.6064453125,-66.1669921875,-65.4345703125,-65.8251953125,-65.7763671875,-65.0439453125,-66.0205078125,-66.3134765625,-66.8994140625,-67.2900390625,-68.1689453125,-69.1455078125,-69.3896484375,-70.1708984375,-70.3173828125,-71.4892578125,-71.5380859375,-72.3681640625,-72.9052734375,-73.2470703125,-73.9306640625,-75.1513671875,-74.9072265625,-75.1025390625,-73.9306640625,-72.3193359375,-70.9521484375,-69.1455078125,-66.7041015625,-65.4833984375,-63.9697265625,-63.9208984375,-63.7255859375,-63.4814453125,-63.4326171875,-63.4326171875,-64.2138671875,-64.3603515625,-65.3369140625,-65.9716796875,-67.2412109375,-67.6806640625,-68.8037109375,-69.9267578125,-70.5615234375,-71.0498046875,-72.1240234375,-72.4169921875,-73.3935546875,-74.1748046875,-75.2001953125,-75.8837890625,-76.8115234375,-77.4462890625,-77.7392578125,-78.2763671875,-76.8115234375,-75.9326171875,-74.3701171875,-72.9052734375,-71.1962890625,-69.1455078125,-67.8271484375,-67.0947265625,-66.8505859375,-67.4853515625,-67.0458984375,-67.3876953125,-67.6318359375,-68.8525390625,-69.0478515625,-70.1220703125,-70.1220703125,-71.2939453125,-72.2216796875,-72.8564453125,-73.3447265625,-74.5166015625,-75.6884765625,-76.0791015625,-76.4208984375,-77.5927734375,-78.4228515625,-79.3017578125,-79.8388671875,-79.9365234375,-80.8642578125,-80.9130859375,-80.3271484375,-79.5947265625,-77.6904296875,-76.8603515625,-74.5166015625,-73.3935546875,-72.1240234375,-70.8544921875,-70.7080078125,-71.3916015625,-70.9521484375,-71.1474609375,-71.5380859375,-71.4404296875,-72.3681640625,-73.2470703125,-73.1982421875,-73.8818359375,-74.5654296875,-76.0302734375,-76.7138671875,-77.1044921875,-78.4716796875,-78.4228515625,-79.3017578125,-79.2041015625,-79.8876953125,-80.9619140625,-81.1572265625,-82.1337890625,-82.4267578125,-82.7197265625,-80.8642578125,-79.7412109375,-79.2041015625,-77.6904296875,-75.8837890625,-74.7119140625,-73.8818359375,-73.7353515625,-73.7353515625,-72.5634765625,-73.0029296875,-73.3935546875,-73.5400390625,-73.7353515625,-74.3212890625,-74.5654296875,-75.3955078125,-75.8837890625,-76.8115234375,-77.4951171875,-77.6416015625,-78.7646484375,-79.5458984375,-79.5458984375,-80.3271484375,-80.6201171875,-81.2548828125,-82.3779296875,-83.0126953125,-83.4521484375,-83.5498046875,-82.7197265625,-82.0361328125,-81.4013671875,-79.8876953125,-78.0322265625,-76.1767578125,-75.2001953125,-73.8818359375,-73.7353515625,-73.0029296875,-72.8076171875,-72.7587890625,-72.4658203125,-72.7587890625,-73.1982421875,-72.8076171875,-73.6376953125,-74.8583984375,-75.2490234375,-75.0048828125,-75.7373046875,-76.5185546875,-76.6162109375,-77.5927734375,-77.6904296875,-78.4716796875,-79.4482421875,-79.3994140625,-80.3271484375,-80.9130859375,-81.0107421875,-81.4501953125,-80.8642578125,-80.2294921875,-79.0576171875,-78.5205078125,-76.2255859375,-74.5654296875,-72.9541015625,-71.3916015625,-70.3173828125,-70.3662109375,-69.3896484375,-68.9990234375,-68.8525390625,-69.2919921875,-69.5361328125,-68.9013671875,-69.4384765625,-69.1943359375,-70.6591796875,-71.2939453125,-71.8310546875,-72.5146484375,-72.5146484375,-73.2470703125,-73.9306640625,-74.1259765625,-74.5166015625,-75.3955078125,-75.5419921875,-76.0791015625,-76.0302734375,-77.0068359375,-76.5673828125,-75.4931640625,-75.1025390625,-72.5146484375,-71.4892578125,-69.0966796875,-68.3642578125,-66.1669921875,-65.5810546875,-64.9951171875,-64.8974609375,-63.9208984375,-64.6044921875,-64.7998046875,-64.5068359375,-65.4345703125,-66.0205078125,-65.8740234375,-67.1923828125,-67.5341796875,-68.1689453125,-68.3642578125,-69.3896484375,-69.9267578125,-70.9033203125,-71.9775390625,-71.9287109375,-72.9052734375,-73.5888671875,-73.4423828125,-74.2724609375,-74.2236328125,-74.4677734375,-73.6376953125,-72.2216796875,-70.8056640625,-69.0966796875,-66.9970703125,-65.2880859375,-63.7744140625,-62.5048828125,-62.2607421875,-62.2119140625,-61.7724609375,-62.2119140625,-62.6025390625,-63.3349609375,-63.6767578125,-63.9208984375,-65.0439453125,-65.9716796875,-66.9482421875,-67.8271484375,-68.8525390625,-69.5361328125,-70.1708984375,-71.8798828125,-72.6611328125,-73.5888671875,-74.1748046875,-75.0537109375,-76.2255859375,-78.0810546875,-78.1787109375,-79.3505859375,-80.5224609375,-79.8388671875,-79.0576171875,-77.8857421875,-76.3720703125,-75.1025390625,-72.6611328125,-70.8056640625,-69.0966796875,-67.4853515625,-66.1669921875,-64.9951171875,-64.3115234375,-64.2626953125,-64.8974609375,-65.8251953125,-66.2158203125,-66.8017578125,-68.2666015625,-69.2431640625,-70.7568359375,-70.6103515625,-71.6845703125,-72.8076171875,-73.3447265625,-75.0537109375,-75.1513671875,-75.9326171875,-76.4697265625,-77.1044921875,-77.6904296875,-78.6669921875,-78.7646484375,-79.7412109375,-79.3017578125,-78.5693359375,-76.7138671875,-76.2744140625,-74.1259765625,-72.8076171875,-71.8798828125,-70.9521484375,-70.6591796875,-71.0009765625,-69.9755859375,-70.3173828125,-71.0498046875,-71.0986328125,-71.8310546875,-72.3193359375,-72.7099609375,-73.1982421875,-73.9794921875,-74.4677734375,-75.0048828125,-75.8837890625,-76.8115234375,-77.4951171875,-77.8857421875,-78.7158203125,-78.9599609375,-79.8876953125,-79.8388671875,-81.2548828125,-80.9130859375,-81.7919921875,-82.2314453125,-81.4501953125,-81.1083984375,-79.6435546875,-77.9833984375,-75.7861328125,-74.6142578125,-73.2470703125,-72.0751953125,-72.0263671875,-71.7333984375,-71.2939453125,-71.1474609375,-71.4404296875,-71.3427734375,-71.5869140625,-71.9775390625,-72.1728515625,-72.7587890625,-73.1494140625,-73.5888671875,-74.3212890625,-75.1025390625,-75.3466796875,-76.0302734375,-76.3232421875,-77.4951171875,-77.8369140625,-78.4716796875,-78.8623046875,-79.2529296875,-79.7900390625,-79.9365234375,-80.5712890625,-79.0576171875,-77.8857421875,-76.7138671875,-75.2001953125,-73.4423828125,-71.9775390625,-70.5126953125,-69.4384765625,-69.3408203125,-68.6572265625,-67.9248046875,-67.7783203125,-67.5341796875,-67.4365234375,-67.9248046875,-67.9248046875,-67.7294921875,-69.0478515625,-68.8037109375,-69.4384765625,-69.7802734375,-70.3173828125,-70.9521484375,-71.0986328125,-71.7822265625,-72.4169921875,-73.0517578125,-73.4423828125,-74.0283203125,-74.5654296875,-74.8095703125,-75.2978515625,-74.2236328125,-73.3447265625,-71.7822265625,-70.0732421875,-68.3642578125,-67.0947265625,-65.0439453125,-63.0419921875,-63.0419921875,-62.4072265625,-62.1630859375,-61.7236328125,-61.4794921875,-61.7724609375,-61.3330078125,-62.1142578125,-62.8466796875,-63.0908203125,-63.7255859375,-63.5302734375,-64.5556640625,-64.9951171875,-66.0205078125,-66.8017578125,-67.5830078125,-67.6806640625,-67.7294921875,-68.6572265625,-69.1455078125,-69.8779296875,-69.9755859375,-71.1962890625,-70.5126953125,-70.3173828125,-68.9501953125,-67.5830078125,-66.3623046875,-63.7255859375,-62.1630859375,-60.5517578125,-59.5751953125,-59.3310546875,-59.6240234375,-58.7939453125,-58.7939453125,-58.4033203125,-58.5009765625,-59.3310546875,-59.8193359375,-60.6982421875,-60.9912109375,-62.3095703125,-62.3095703125,-63.0908203125,-64.0673828125,-64.3115234375,-65.1904296875,-65.7275390625,-66.5576171875,-66.7041015625,-67.9248046875,-68.5107421875,-69.5849609375,-69.8779296875,-71.0009765625,-70.3173828125,-69.6826171875,-67.9248046875,-66.6064453125,-65.2880859375,-63.5302734375,-62.2119140625,-60.6982421875,-60.5029296875,-60.3076171875,-59.9658203125,-59.6240234375,-60.1611328125,-60.3076171875,-60.9423828125,-60.8447265625,-61.7724609375,-62.3095703125,-62.8466796875,-63.7255859375,-65.1416015625,-65.5322265625,-65.7275390625,-67.0947265625,-67.4365234375,-67.8759765625,-69.2919921875,-69.9755859375,-71.0009765625,-71.2451171875,-72.5146484375,-73.3447265625,-73.3935546875,-72.5146484375,-71.3916015625,-71.1474609375,-69.0966796875,-67.6318359375,-66.1669921875,-64.9951171875,-64.0673828125,-63.5302734375,-63.4326171875,-63.5302734375,-63.4814453125,-64.3115234375,-64.6044921875,-64.5068359375,-65.2880859375,-65.8740234375,-66.2646484375,-67.2900390625,-67.5830078125,-68.5595703125,-68.7548828125,-69.7802734375,-70.7568359375,-71.4404296875,-72.2705078125,-72.7587890625,-73.9306640625,-74.4189453125,-74.9072265625,-75.0048828125,-75.5419921875,-76.1767578125,-75.3955078125,-75.0048828125,-73.9306640625,-72.5634765625,-70.2197265625,-69.4873046875,-67.8759765625,-67.5830078125,-66.4599609375,-66.8505859375,-66.2158203125,-66.5087890625,-66.7529296875,-66.5576171875,-67.3876953125,-67.5341796875,-68.0224609375,-69.0478515625,-69.0966796875,-70.0732421875,-70.6591796875,-70.8056640625,-72.2705078125,-72.8564453125,-73.4912109375,-73.2958984375,-73.6865234375,-74.3212890625,-74.8095703125,-75.5908203125,-75.8837890625,-75.9326171875,-76.0791015625,-76.0791015625,-74.5654296875,-73.4423828125,-72.4169921875,-70.7568359375,-68.8525390625,-67.8759765625,-66.9482421875,-66.0693359375,-65.2880859375,-65.0927734375,-65.5322265625,-65.6298828125,-65.2392578125,-66.2158203125,-66.4599609375,-66.5576171875,-67.0947265625,-67.3388671875,-68.6083984375,-68.5107421875,-69.5361328125,-69.7314453125,-70.3173828125,-70.8056640625,-71.4404296875,-71.8310546875,-72.8564453125,-72.6123046875,-73.2958984375,-73.8818359375,-74.3701171875,-74.6630859375,-73.6376953125,-73.1494140625,-71.9287109375,-69.8779296875,-68.8525390625,-66.3134765625,-65.2392578125,-64.3115234375,-63.7255859375,-63.4326171875,-62.3095703125,-62.2119140625,-61.9189453125,-62.0166015625,-62.0166015625,-62.9443359375,-63.2373046875,-63.8232421875,-63.7255859375,-64.3603515625,-65.5322265625,-65.3857421875,-65.9716796875,-66.5087890625,-66.8017578125,-67.4365234375,-67.6806640625,-68.2177734375,-69.8291015625,-68.8037109375,-68.5595703125,-70.6591796875,-70.5615234375,-69.7802734375,-68.2177734375,-67.0947265625,-65.7763671875,-64.5068359375,-62.7978515625,-60.3564453125,-59.2822265625,-58.6962890625,-58.6962890625,-57.7197265625,-56.9384765625,-57.0849609375,-57.3779296875,-57.4755859375,-58.0615234375,-59.0380859375,-59.4287109375,-59.9169921875,-60.3564453125,-61.4306640625,-61.4794921875,-61.9677734375,-62.2607421875,-62.6025390625,-63.2861328125,-63.5302734375,-64.3603515625,-64.9462890625,-65.5810546875,-66.0693359375,-66.5576171875,-67.0947265625,-67.0458984375,-65.8251953125,-63.9208984375,-63.0419921875,-60.9423828125,-59.8681640625,-58.2080078125,-56.9873046875,-56.8896484375,-56.2548828125,-56.0595703125,-55.2783203125,-55.9130859375,-55.0830078125,-56.1083984375,-56.6943359375,-57.4267578125,-57.6220703125,-58.8916015625,-59.2333984375,-59.4287109375,-59.7705078125,-60.2587890625,-61.4306640625,-61.5283203125,-62.7490234375,-63.3837890625,-63.9697265625,-64.3115234375,-64.8974609375,-65.3857421875,-65.5322265625,-65.8740234375,-65.4345703125,-65.1904296875,-64.0185546875,-62.6513671875,-60.9423828125,-59.2822265625,-57.7197265625,-56.3037109375,-55.9619140625,-55.8642578125,-55.5712890625,-55.0830078125,-55.1806640625,-55.8154296875,-55.9619140625,-56.4013671875,-56.7919921875,-57.4267578125,-57.8662109375,-58.4033203125,-59.4775390625,-59.5751953125,-60.1123046875,-60.9423828125,-61.7724609375,-62.0654296875,-62.6025390625,-63.9208984375,-64.3603515625,-63.8720703125,-64.9462890625,-65.7275390625,-65.8251953125,-65.0927734375,-64.6044921875,-63.6279296875,-61.7236328125,-60.4052734375,-58.7939453125,-57.4755859375,-56.5478515625,-56.9384765625,-56.4501953125,-56.4990234375,-56.2548828125,-56.0595703125,-56.4013671875,-55.7666015625,-56.4990234375,-56.7431640625,-57.5244140625,-57.6708984375,-59.0869140625,-58.9404296875,-59.7705078125,-61.0400390625,-61.1865234375,-61.8212890625,-62.2119140625,-62.7490234375,-63.8720703125,-64.6044921875,-65.1904296875,-65.3369140625,-65.6787109375,-64.9462890625,-63.7744140625,-62.8466796875,-61.9189453125,-59.6728515625,-58.5986328125,-57.3291015625,-57.2314453125,-56.9873046875,-56.3525390625,-56.4990234375,-56.0107421875,-56.6455078125,-57.3779296875,-57.3291015625,-57.4267578125,-58.3544921875,-59.2822265625,-59.1357421875,-60.6494140625,-60.7958984375,-60.7958984375,-61.6748046875,-62.5048828125,-63.1884765625,-63.3837890625,-64.1650390625,-64.4580078125,-65.3369140625,-66.0693359375,-65.8251953125,-65.6787109375,-64.9951171875,-63.5302734375,-63.1884765625,-61.3818359375,-59.3798828125,-58.8427734375,-57.7197265625,-56.6943359375,-55.7177734375,-55.6689453125,-55.4736328125,-54.9365234375,-55.4736328125,-55.7177734375,-56.6943359375,-56.0107421875,-57.0361328125,-58.0615234375,-58.4521484375,-59.2822265625,-59.5263671875,-60.1611328125,-60.9912109375,-61.0888671875,-62.0654296875,-63.0419921875,-63.7255859375,-63.7744140625,-64.1650390625,-64.9462890625,-65.2392578125,-64.1162109375,-63.2373046875,-61.9677734375,-60.6982421875,-58.7451171875,-57.7197265625,-56.5966796875,-55.5712890625,-55.6689453125,-55.0830078125,-54.8876953125,-54.8876953125,-54.5947265625,-55.4736328125,-56.0107421875,-55.5712890625,-57.1337890625,-57.1826171875,-58.1591796875,-59.1357421875,-59.6240234375,-60.5029296875,-60.6982421875,-61.2841796875,-62.3583984375,-62.8466796875,-63.7744140625,-64.7021484375,-64.6533203125,-65.3857421875,-65.7763671875,-64.9951171875,-64.0673828125,-62.7001953125,-61.2353515625,-59.2333984375,-58.3056640625,-56.7431640625,-56.0107421875,-56.1083984375,-56.1572265625,-55.7666015625,-55.9619140625,-56.0107421875,-56.0595703125,-57.1826171875,-57.6220703125,-58.6962890625,-58.5986328125,-59.6728515625,-60.4541015625,-60.8447265625,-61.3330078125,-62.9931640625,-63.1396484375,-64.2626953125,-64.5068359375,-65.0439453125,-66.0693359375,-66.7041015625,-66.9970703125,-67.6806640625,-67.0947265625,-65.7763671875,-65.0927734375,-64.3115234375,-62.0654296875,-60.6494140625,-59.1357421875,-57.6220703125,-57.7197265625,-57.6708984375,-56.8896484375,-56.7431640625,-57.0361328125,-57.5244140625,-57.8173828125,-58.4521484375,-59.5751953125,-59.4775390625,-61.3330078125,-61.1376953125,-61.5283203125,-62.6513671875,-63.4814453125,-64.0673828125,-64.5556640625,-65.5322265625,-66.8994140625,-67.1923828125,-67.7783203125,-68.0224609375,-68.3642578125,-68.5595703125,-67.9248046875,-67.1923828125,-65.5322265625,-64.7509765625,-63.4326171875,-62.1142578125,-60.9423828125,-60.6982421875,-60.4052734375,-60.6005859375,-59.9658203125,-60.5517578125,-60.8447265625,-61.2841796875,-61.9189453125,-62.8466796875
