PPG_subj_07,25,M,N,Non-diabetic,88,34.8598,Forehead,0.185546875,0.185546875,0.185546875,0.185546875,0.185546875,0.185546875,152.5732421875,157.4072265625,-158.4423828125,-155.3662109375,-152.8759765625,-151.0693359375,-148.7255859375,-147.4072265625,-146.4794921875,-145.9423828125,-145.1123046875,-144.6728515625,-144.6240234375,-143.9404296875,-142.9638671875,-142.4267578125,-142.3291015625,-141.8896484375,-141.6455078125,-141.6943359375,-141.4990234375,-141.6455078125,-141.4990234375,-142.1337890625,-141.8408203125,-142.0849609375,-141.7431640625,-142.0361328125,-142.1337890625,-142.1826171875,-142.5244140625,-142.4267578125,-142.9150390625,-142.5244140625,-142.5244140625,-139.7412109375,-138.7646484375,-137.3486328125,-137.2509765625,-137.5927734375,-137.2509765625,-137.1533203125,-137.2021484375,-137.4462890625,-136.8115234375,-136.4697265625,-136.3232421875,-136.6650390625,-136.4697265625,-136.9091796875,-136.9091796875,-137.3974609375,-137.4462890625,-137.0068359375,-137.9833984375,-137.8857421875,-137.9345703125,-138.5205078125,-139.0087890625,-138.8623046875,-139.0576171875,-139.5458984375,-140.0341796875,-140.2294921875,-140.7177734375,-140.4248046875,-140.6201171875,-140.9130859375,-139.8388671875,-137.9345703125,-136.5185546875,-134.9072265625,-134.9072265625,-134.4677734375,-134.1748046875,-134.1259765625,-133.5400390625,-133.5888671875,-133.4423828125,-133.3935546875,-132.5634765625,-132.9541015625,-132.9541015625,-133.3447265625,-133.7353515625,-133.9306640625,-134.0771484375,-134.4677734375,-133.8818359375,-134.0771484375,-134.9560546875,-134.7119140625,-135.5419921875,-135.6396484375,-136.0302734375,-135.8349609375,-136.4697265625,-136.7138671875,-137.1533203125,-137.7392578125,-137.7880859375,-138.2275390625,-138.6181640625,-138.6181640625,-138.9599609375,-139.7412109375,-139.8876953125,-139.7900390625,-137.5927734375,-135.4931640625,-133.9794921875,-132.9541015625,-132.7099609375,-132.2216796875,-132.1728515625,-131.7822265625,-131.4404296875,-131.7822265625,-131.8798828125,-131.4892578125,-131.5869140625,-131.6357421875,-131.4404296875,-132.1240234375,-132.7099609375,-132.4169921875,-132.4658203125,-132.7099609375,-133.6376953125,-134.1748046875,-133.9306640625,-134.4189453125,-134.6142578125,-134.9072265625,-135.0048828125,-135.0048828125,-135.6884765625,-136.3232421875,-136.3232421875,-137.2021484375,-137.3974609375,-137.2509765625,-137.5927734375,-137.6904296875,-138.1298828125,-138.1787109375,-136.9580078125,-134.5166015625,-133.1982421875,-131.8798828125,-131.4892578125,-131.6357421875,-131.1962890625,-131.3427734375,-131.2939453125,-131.1474609375,-130.9033203125,-130.7080078125,-130.5615234375,-130.2197265625,-130.5126953125,-131.0986328125,-131.4404296875,-131.3916015625,-131.6845703125,-132.4658203125,-132.2705078125,-132.3193359375,-132.9052734375,-132.9541015625,-132.8076171875,-133.3447265625,-133.4423828125,-133.7353515625,-134.0771484375,-134.3212890625,-133.7841796875,-132.9052734375,-131.3916015625,-129.5361328125,-129.1943359375,-128.9501953125,-128.9013671875,-128.4619140625,-128.5595703125,-128.8037109375,-128.8525390625,-128.7548828125,-128.1689453125,-128.4130859375,-128.6572265625,-128.8525390625,-128.5595703125,-129.2431640625,-129.9755859375,-130.1708984375,-130.0732421875,-131.0986328125,-131.0986328125,-130.9033203125,-131.0986328125,-131.3427734375,-131.3916015625,-131.5380859375,-132.1240234375,-132.3681640625,-132.3681640625,-132.3681640625,-132.2705078125,-130.0244140625,-128.1201171875,-127.2412109375,-126.0693359375,-125.7275390625,-125.3369140625,-124.7021484375,-124.8974609375,-124.7509765625,-124.2626953125,-124.6044921875,-124.6533203125,-124.4580078125,-124.2626953125,-125.0439453125,-124.8486328125,-125.2880859375,-125.4833984375,-126.0693359375,-126.2158203125,-126.4599609375,-127.1435546875,-126.5087890625,-127.0458984375,-127.2900390625,-127.8271484375,-128.1689453125,-128.1689453125,-128.8525390625,-129.2919921875,-129.1455078125,-129.0478515625,-128.9501953125,-129.6826171875,-129.6337890625,-129.9267578125,-130.2197265625,-130.9521484375,-130.5126953125,-128.7060546875,-126.2646484375,-124.0185546875,-123.1396484375,-122.7001953125,-121.5771484375,-121.7236328125,-120.6982421875,-120.8935546875,-120.6005859375,-120.2099609375,-119.8681640625,-119.4775390625,-119.4287109375,-119.3310546875,-119.6728515625,-119.6240234375,-119.9169921875,-119.9658203125,-120.1611328125,-120.6005859375,-120.5517578125,-120.7958984375,-120.8935546875,-120.9423828125,-120.7958984375,-121.7236328125,-122.2607421875,-122.5537109375,-122.4072265625,-122.7978515625,-123.1396484375,-123.6767578125,-124.2138671875,-124.2138671875,-124.8486328125,-125.4345703125,-125.2392578125,-125.4833984375,-125.8251953125,-126.4599609375,-126.1669921875,-125.8740234375,-123.8232421875,-121.8212890625,-120.1123046875,-119.1845703125,-118.7451171875,-118.1591796875,-117.8662109375,-117.8662109375,-117.4755859375,-117.1337890625,-117.5732421875,-116.8408203125,-117.2314453125,-117.1826171875,-117.3779296875,-117.9638671875,-118.0615234375,-118.4033203125,-119.0869140625,-118.9892578125,-118.5986328125,-119.4287109375,-118.5009765625,-117.3291015625,-115.5712890625,-113.6669921875,-112.7392578125,-112.3974609375,-111.7626953125,-111.7138671875,-112.2509765625,-112.5927734375,-113.7646484375,-114.1064453125,-115.7666015625,-116.0107421875,-117.2802734375,-116.9873046875,-115.0341796875,-113.4716796875,-112.6416015625,-112.0068359375,-111.6162109375,-111.9580078125,-111.6650390625,-112.1533203125,-112.9833984375,-113.1298828125,-113.6181640625,-114.3017578125,-114.6435546875,-114.8388671875,-115.1806640625,-115.7666015625,-115.9619140625,-116.4013671875,-116.5478515625,-117.1826171875,-118.0126953125,-118.0615234375,-118.0615234375,-118.5009765625,-118.8916015625,-119.1357421875,-119.1357421875,-119.8193359375,-120.0634765625,-119.9658203125,-120.5029296875,-120.6982421875,-121.2353515625,-121.1865234375,-121.7236328125,-122.0166015625,-122.4072265625,-122.3095703125,-120.6494140625,-118.6962890625,-116.7919921875,-115.9619140625,-115.2783203125,-114.9853515625,-114.9365234375,-114.4970703125,-114.3994140625,-114.7900390625,-114.7412109375,-114.2529296875,-114.2041015625,-114.8876953125,-114.7900390625,-115.2783203125,-116.1572265625,-116.0107421875,-116.0595703125,-116.4013671875,-117.0361328125,-117.5732421875,-117.6220703125,-117.4267578125,-118.0615234375,-118.5009765625,-118.5986328125,-118.8916015625,-119.1845703125,-119.5751953125,-119.6728515625,-120.0146484375,-120.3564453125,-120.6982421875,-121.1865234375,-120.9423828125,-121.3330078125,-121.9189453125,-122.0654296875,-122.1142578125,-122.8955078125,-122.9443359375,-122.3583984375,-120.6005859375,-118.3544921875,-116.5478515625,-116.3525390625,-116.1572265625,-115.3759765625,-114.7900390625,-114.4482421875,-114.8876953125,-114.8388671875,-114.6923828125,-114.8388671875,-114.9853515625,-115.1318359375,-115.8642578125,-115.9130859375,-116.5478515625,-117.0849609375,-117.3291015625,-117.6220703125,-118.2568359375,-118.2080078125,-118.5009765625,-119.2822265625,-119.2333984375,-119.3798828125,-120.1123046875,-120.2099609375,-120.9423828125,-120.9423828125,-121.1865234375,-121.4794921875,-121.7236328125,-122.1142578125,-122.4072265625,-122.9443359375,-122.6513671875,-123.1396484375,-123.7255859375,-124.2626953125,-122.8955078125,-120.5029296875,-119.1357421875,-118.6474609375,-117.7197265625,-117.5244140625,-117.5244140625,-116.9873046875,-117.2314453125,-117.5244140625,-117.1826171875,-117.5244140625,-117.3291015625,-117.8173828125,-117.5244140625,-118.1591796875,-119.1357421875,-119.1845703125,-119.1357421875,-119.8193359375,-120.1123046875,-120.6494140625,-120.6494140625,-121.2353515625,-121.2353515625,-121.6748046875,-122.1142578125,-122.2119140625,-122.7490234375,-123.0419921875,-123.6767578125,-123.4326171875,-123.6279296875,-123.9697265625,-123.9208984375,-124.3603515625,-124.4091796875,-122.6025390625,-120.3564453125,-119.6240234375,-119.2822265625,-119.0380859375,-118.7451171875,-118.5009765625,-118.3544921875,-118.8916015625,-119.3798828125,-118.7939453125,-118.9404296875,-119.0869140625,-119.3310546875,-119.5263671875,-120.0146484375,-120.1611328125,-120.3076171875,-121.1865234375,-121.1865234375,-121.8212890625,-121.8701171875,-122.0166015625,-122.3583984375,-122.5048828125,-123.4814453125,-122.8466796875,-123.4814453125,-123.8232421875,-124.6533203125,-124.3603515625,-124.4091796875,-124.6533203125,-125.1904296875,-125.2392578125,-125.8251953125,-126.3134765625,-126.7529296875,-126.5576171875,-127.0458984375,-127.1923828125,-126.9970703125,-127.5341796875,-127.7294921875,-126.2646484375,-124.7998046875,-122.5048828125,-121.3330078125,-120.9423828125,-120.4541015625,-119.9658203125,-119.9169921875,-119.0380859375,-118.9892578125,-119.2333984375,-119.2333984375,-119.3310546875,-119.1357421875,-119.9169921875,-119.5751953125,-120.2099609375,-120.7958984375,-120.8935546875,-120.5029296875,-121.7236328125,-121.7236328125,-121.9677734375,-122.3583984375,-122.5048828125,-122.7490234375,-123.4814453125,-123.6767578125,-123.5791015625,-124.3603515625,-124.2138671875,-124.4580078125,-124.5556640625,-125.1416015625,-125.5322265625,-125.4345703125,-125.7275390625,-126.1669921875,-126.0205078125,-126.8994140625,-127.0947265625,-127.2412109375,-127.5830078125,-127.5341796875,-127.7294921875,-128.2177734375,-126.9482421875,-125.1904296875,-123.1884765625,-122.0654296875,-121.6748046875,-121.0400390625,-120.5517578125,-119.9169921875,-119.5263671875,-119.5263671875,-119.3310546875,-119.5263671875,-119.9169921875,-119.7216796875,-119.8681640625,-119.8193359375,-120.9423828125,-121.2353515625,-121.2841796875,-121.3818359375,-121.5283203125,-122.2607421875,-122.3583984375,-122.2607421875,-122.9931640625,-123.1396484375,-123.6279296875,-123.9208984375,-123.5791015625,-124.6044921875,-124.3603515625,-124.9951171875,-125.4345703125,-125.0439453125,-125.9716796875,-126.0205078125,-126.0205078125,-126.4599609375,-126.2158203125,-127.0458984375,-127.4365234375,-127.1923828125,-127.9736328125,-127.7783203125,-126.3134765625,-124.6533203125,-122.7490234375,-121.9189453125,-121.7724609375,-120.3564453125,-120.3564453125,-120.6494140625,-119.6728515625,-120.2099609375,-120.2587890625,-119.9169921875,-120.3564453125,-120.5029296875,-120.6005859375,-120.6982421875,-121.5283203125,-121.5283203125,-122.1630859375,-122.1142578125,-122.4560546875,-122.4072265625,-122.9931640625,-123.7255859375,-123.2373046875,-123.6767578125,-123.8720703125,-124.0185546875,-124.0185546875,-124.4091796875,-124.8974609375,-125.0439453125,-125.2392578125,-125.7763671875,-125.8740234375,-125.4345703125,-126.0205078125,-126.1181640625,-126.2646484375,-127.3388671875,-127.1923828125,-127.6806640625,-125.8740234375,-124.7509765625,-122.9443359375,-121.5283203125,-120.9912109375,-121.2841796875,-120.5029296875,-119.9169921875,-120.4052734375,-120.6982421875,-120.6494140625,-120.7470703125,-120.3564453125,-120.1611328125,-120.6494140625,-120.7958984375,-121.4306640625,-121.6748046875,-122.0166015625,-122.4072265625,-121.9677734375,-122.7001953125,-123.1396484375,-123.1396484375,-123.4814453125,-123.1396484375,-123.9208984375,-124.0185546875,-124.5556640625,-124.9462890625,-124.9462890625,-125.2880859375,-125.1904296875,-125.5322265625,-125.9716796875,-126.5576171875,-126.4599609375,-126.8505859375,-126.8994140625,-126.9482421875,-127.3388671875,-127.2412109375,-127.6806640625,-126.7041015625,-124.4091796875,-122.7001953125,-121.8212890625,-120.7470703125,-120.7470703125,-120.3076171875,-119.9169921875,-119.8193359375,-120.1123046875,-119.9169921875,-119.8681640625,-119.7216796875,-119.5751953125,-120.3564453125,-120.3564453125,-121.2353515625,-121.4306640625,-121.8701171875,-121.3330078125,-122.3095703125,-122.4560546875,-122.8466796875,-123.0908203125,-123.4326171875,-123.2861328125,-123.9697265625,-123.6279296875,-124.7509765625,-124.9462890625,-124.4580078125,-125.1416015625,-125.2392578125,-125.0927734375,-125.0927734375,-125.6787109375,-126.2646484375,-126.0205078125,-126.5087890625,-126.8994140625,-127.1435546875,-127.6318359375,-127.7294921875,-126.6552734375,-124.1162109375,-122.7490234375,-121.5771484375,-121.0400390625,-120.7470703125,-120.2587890625,-119.7216796875,-119.4775390625,-119.4287109375,-119.3798828125,-119.4287109375,-119.6240234375,-120.0634765625,-119.8193359375,-120.3076171875,-120.5029296875,-121.1865234375,-121.5771484375,-121.5283203125,-121.8212890625,-122.2607421875,-121.7236328125,-121.9189453125,-122.7978515625,-122.7978515625,-123.6279296875,-123.5791015625,-123.7744140625,-124.1162109375,-124.1650390625,-124.7509765625,-124.8974609375,-124.9462890625,-124.7509765625,-125.7763671875,-126.0205078125,-125.4345703125,-126.5576171875,-125.7763671875,-126.5087890625,-126.2646484375,-126.4111328125,-125.2392578125,-122.8955078125,-121.6259765625,-120.6982421875,-120.1611328125,-120.2587890625,-120.0146484375,-119.5263671875,-119.7705078125,-119.4775390625,-119.5751953125,-119.3310546875,-119.4287109375,-119.7216796875,-119.7705078125,-119.9658203125,-120.3564453125,-120.5517578125,-120.8447265625,-121.2841796875,-121.6748046875,-121.9189453125,-122.0166015625,-122.5048828125,-122.2119140625,-122.8466796875,-122.5048828125,-122.7978515625,-123.0908203125,-123.3837890625,-123.6767578125,-124.2626953125,-124.3603515625,-124.4091796875,-124.7021484375,-124.8974609375,-125.4345703125,-125.2392578125,-125.7763671875,-125.7763671875,-126.4111328125,-126.6552734375,-126.5576171875,-124.9462890625,-122.2119140625,-121.1865234375,-120.4052734375,-120.1123046875,-119.8681640625,-119.0869140625,-118.9404296875,-118.5986328125,-118.6474609375,-118.2080078125,-118.5986328125,-118.1591796875,-118.3544921875,-119.1845703125,-119.3310546875,-119.1845703125,-120.2099609375,-120.0634765625,-120.1611328125,-120.7470703125,-120.9423828125,-120.5517578125,-121.2353515625,-121.7236328125,-121.4306640625,-122.2119140625,-121.8212890625,-122.4072265625,-122.5537109375,-122.6025390625,-122.6025390625,-122.9931640625,-123.0419921875,-123.1396484375,-123.8232421875,-123.8720703125,-124.1650390625,-124.5068359375,-124.8486328125,-124.7509765625,-125.3857421875,-125.7275390625,-125.0439453125,-125.2880859375,-124.5068359375,-122.2119140625,-120.0146484375,-119.2822265625,-118.5986328125,-117.9638671875,-116.9873046875,-116.6455078125,-115.9619140625,-116.2548828125,-115.8154296875,-115.9130859375,-115.9130859375,-116.1083984375,-115.7177734375,-116.5478515625,-116.4013671875,-116.8896484375,-117.3779296875,-117.4755859375,-118.0615234375,-117.5732421875,-117.9150390625,-117.9638671875,-118.5009765625,-118.8916015625,-118.9404296875,-119.4287109375,-119.3798828125,-119.9658203125,-120.1611328125,-120.1611328125,-120.5517578125,-120.1611328125,-120.9912109375,-120.9423828125,-121.2353515625,-121.6748046875,-121.2353515625,-121.6259765625,-121.8701171875,-121.8701171875,-121.1376953125,-119.4287109375,-117.6220703125,-116.5966796875,-116.4013671875,-115.6689453125,-115.0830078125,-115.0830078125,-114.7412109375,-114.6923828125,-115.0830078125,-114.8388671875,-114.7412109375,-114.7412109375,-115.3759765625,-115.3759765625,-115.7177734375,-116.1083984375,-116.0107421875,-116.4990234375,-116.6943359375,-116.7431640625,-117.6220703125,-117.2802734375,-118.3544921875,-118.1103515625,-118.4521484375,-118.5498046875,-118.9404296875,-119.4287109375,-119.5263671875,-119.7705078125,-119.8681640625,-119.8681640625,-120.2587890625,-120.6494140625,-120.7958984375,-120.9423828125,-121.3330078125,-121.5283203125,-121.8212890625,-121.0888671875,-119.2333984375,-117.3779296875,-116.2548828125,-115.4736328125,-115.1318359375,-114.4482421875,-113.6181640625,-113.5205078125,-113.4228515625,-113.5693359375,-113.6669921875,-113.6669921875,-113.7158203125,-113.7158203125,-113.9111328125,-114.1064453125,-114.3017578125,-114.7412109375,-115.0341796875,-115.1806640625,-115.1318359375,-115.9130859375,-115.7666015625,-116.1572265625,-116.1572265625,-116.4501953125,-117.4267578125,-116.9384765625,-117.5244140625,-118.2080078125,-117.8662109375,-118.2568359375,-118.6474609375,-118.7939453125,-118.7939453125,-118.7451171875,-119.3798828125,-119.5263671875,-119.4287109375,-119.9658203125,-120.2099609375,-120.3076171875,-120.7470703125,-121.0888671875,-120.7958984375,-119.0869140625,-116.6943359375,-115.4736328125,-114.5458984375,-114.2529296875,-113.6669921875,-112.9833984375,-112.4951171875,-112.2998046875,-111.8603515625,-112.6416015625,-111.8603515625,-112.0068359375,-112.4462890625,-112.5927734375,-112.7880859375,-112.9833984375,-113.9599609375,-113.7646484375,-114.0087890625,-113.7646484375,-113.7158203125,-114.1552734375,-113.9599609375,-114.4970703125,-114.0576171875,-114.5947265625,-114.4970703125,-114.9365234375,-115.4736328125,-115.3759765625,-115.9619140625,-116.0107421875,-116.1572265625,-116.4990234375,-116.6455078125,-117.1337890625,-117.6708984375,-117.8173828125,-117.7685546875,-118.0615234375,-118.1591796875,-118.3544921875,-117.5732421875,-116.4501953125,-114.6923828125,-112.8857421875,-112.6904296875,-111.7626953125,-111.3720703125,-111.1279296875,-110.6884765625,-110.4931640625,-110.5908203125,-110.5419921875,-110.9326171875,-110.7373046875,-111.2744140625,-111.5185546875,-111.6650390625,-112.0556640625,-112.5927734375,-112.7880859375,-112.7392578125,-112.8857421875,-113.0322265625,-112.9345703125,-113.8134765625,-114.2529296875,-114.8388671875,-114.9365234375,-114.7900390625,-114.6435546875,-115.0341796875,-115.1806640625,-115.9130859375,-115.7666015625,-116.0107421875,-116.5966796875,-116.7431640625,-117.1337890625,-117.3291015625,-117.4267578125,-117.8173828125,-117.0849609375,-115.7666015625,-113.3740234375,-112.8857421875,-111.7138671875,-111.0791015625,-110.6884765625,-110.2978515625,-109.3701171875,-109.9072265625,-109.8095703125,-110.1513671875,-109.8095703125,-110.1025390625,-110.2001953125,-110.4443359375,-110.4931640625,-111.0302734375,-111.5185546875,-111.5185546875,-111.6162109375,-111.8115234375,-112.3974609375,-112.8857421875,-112.5927734375,-112.8369140625,-113.4716796875,-113.7646484375,-114.2529296875,-114.4970703125,-115.2783203125,-114.7412109375,-115.1806640625,-115.6689453125,-115.4248046875,-115.8154296875,-116.2060546875,-116.4013671875,-116.7431640625,-116.9384765625,-116.3037109375,-117.3291015625,-117.6708984375,-117.8173828125,-117.9638671875,-117.1337890625,-114.9853515625,-113.8134765625,-112.7392578125,-111.7626953125,-110.9814453125,-110.0537109375,-109.8095703125,-109.5654296875,-109.8095703125,-109.4189453125,-109.5166015625,-109.4677734375,-109.2724609375,-109.4677734375,-110.7373046875,-110.0537109375,-110.9326171875,-111.2255859375,-111.0791015625,-111.7138671875,-112.0068359375,-111.7626953125,-112.7392578125,-112.6904296875,-112.9833984375,-113.1298828125,-113.4716796875,-114.2041015625,-113.6181640625,-114.3994140625,-114.3505859375,-114.4482421875,-114.6923828125,-114.6923828125,-114.9853515625,-115.5224609375,-115.6689453125,-115.8154296875,-115.8154296875,-116.6455078125,-116.4501953125,-116.8896484375,-115.9619140625,-113.8134765625,-111.8603515625,-111.0791015625,-111.0302734375,-109.6630859375,-109.7119140625,-109.4189453125,-109.2724609375,-109.6630859375,-109.5654296875,-109.3701171875,-109.3701171875,-110.0048828125,-109.4189453125,-110.6396484375,-110.7861328125,-110.8837890625,-111.4208984375,-111.5673828125,-111.9580078125,-112.2021484375,-112.8857421875,-113.0322265625,-113.0322265625,-113.0322265625,-113.4716796875,-113.7646484375,-114.4482421875,-114.5458984375,-114.8876953125,-114.9853515625,-115.5224609375,-115.8642578125,-115.7177734375,-116.1083984375,-116.3037109375,-116.5966796875,-117.4755859375,-117.3291015625,-117.3291015625,-118.2568359375,-117.4267578125,-117.8662109375,-116.7431640625,-115.0830078125,-113.1298828125,-112.0556640625,-111.6650390625,-110.9326171875,-110.6396484375,-109.7119140625,-109.8095703125,-109.8583984375,-109.8095703125,-109.7119140625,-110.2490234375,-110.4931640625,-110.6396484375,-110.7373046875,-111.2255859375,-111.2744140625,-111.7138671875,-111.9091796875,-112.4951171875,-112.2509765625,-112.8857421875,-113.1298828125,-114.0087890625,-113.9599609375,-114.1064453125,-114.5947265625,-114.3017578125,-114.9365234375,-115.2783203125,-115.4248046875,-116.5478515625,-116.0595703125,-116.4990234375,-116.5966796875,-117.2802734375,-117.1337890625,-117.4267578125,-118.1103515625,-117.8173828125,-117.9638671875,-118.4521484375,-118.2568359375,-117.6220703125,-115.9130859375,-113.5693359375,-112.6416015625,-112.5927734375,-111.2255859375,-111.7138671875,-110.3466796875,-110.4443359375,-111.0302734375,-110.7861328125,-110.9814453125,-110.7373046875,-110.3955078125,-111.0302734375,-111.3720703125,-111.4208984375,-112.1044921875,-112.6416015625,-112.5927734375,-112.8369140625,-112.8369140625,-113.2763671875,-113.2763671875,-113.9111328125,-114.0087890625,-114.3017578125,-114.8388671875,-114.9853515625,-115.0830078125,-115.1318359375,-115.5712890625,-115.6201171875,-115.4736328125,-115.9130859375,-116.0595703125,-116.5478515625,-116.7919921875,-116.8896484375,-116.4501953125,-114.8388671875,-113.0810546875,-111.5185546875,-110.8837890625,-110.8837890625,-110.1513671875,-109.7607421875,-110.0048828125,-110.0537109375,-109.8583984375,-110.5419921875,-109.8583984375,-110.2978515625,-110.2001953125,-110.3466796875,-110.6884765625,-111.2255859375,-111.6650390625,-111.5185546875,-111.8603515625,-111.9580078125,-112.6904296875,-113.0810546875,-113.0810546875,-113.4228515625,-113.6181640625,-113.5693359375,-115.1806640625,-114.2041015625,-114.8876953125,-114.6923828125,-115.0830078125,-115.1318359375,-115.5712890625,-115.7666015625,-116.4013671875,-116.1083984375,-116.6455078125,-117.0361328125,-117.0849609375,-117.0361328125,-116.7431640625,-114.7412109375,-112.9345703125,-111.5185546875,-110.8349609375,-110.2978515625,-109.7119140625,-109.4189453125,-109.2724609375,-109.2724609375,-109.1748046875,-109.1259765625,-109.3212890625,-109.1748046875,-109.3701171875,-109.6630859375,-110.1025390625,-110.4931640625,-110.9326171875,-111.0302734375,-111.2744140625,-111.4697265625,-111.4697265625,-112.1044921875,-112.4951171875,-112.7392578125,-112.7392578125,-113.2275390625,-113.3740234375,-113.6181640625,-113.3740234375,-113.8134765625,-114.4482421875,-114.4482421875,-114.6923828125,-115.0341796875,-115.7177734375,-116.0107421875,-115.8154296875,-115.7666015625,-116.1083984375,-116.6943359375,-116.6943359375,-117.1826171875,-116.2548828125,-113.7646484375,-112.4462890625,-111.0302734375,-110.5908203125,-110.3955078125,-109.9072265625,-108.7353515625,-108.5400390625,-108.1494140625,-108.5400390625,-108.7353515625,-108.8330078125,-108.8330078125,-108.7841796875,-109.4189453125,-109.7119140625,-109.7119140625,-110.3955078125,-110.7373046875,-110.8349609375,-110.9814453125,-110.7861328125,-111.6650390625,-111.7626953125,-112.1044921875,-112.1044921875,-112.6904296875,-113.0322265625,-112.8369140625,-113.5693359375,-113.6181640625,-113.9599609375,-114.0087890625,-114.1552734375,-114.8876953125,-114.8876953125,-115.1806640625,-115.3271484375,-115.7666015625,-114.5458984375,-112.7880859375,-110.8349609375,-110.5419921875,-109.8583984375,-109.8095703125,-108.9306640625,-108.3447265625,-108.7353515625,-108.7353515625,-108.5888671875,-108.7353515625,-108.1494140625,-108.1494140625,-108.3935546875,-108.6376953125,-109.0283203125,-109.0283203125,-109.6630859375,-109.3212890625,-110.1025390625,-109.9560546875,-109.9560546875,-110.6884765625,-110.3466796875,-110.6884765625,-110.9326171875,-111.4208984375,-111.4208984375,-111.9580078125,-112.3486328125,-112.5439453125,-112.4462890625,-113.1787109375,-113.4716796875,-113.4716796875,-113.9111328125,-114.3505859375,-114.6435546875,-114.7900390625,-114.9853515625,-114.9853515625,-114.9365234375,-114.5947265625,-112.3486328125,-110.1025390625,-109.8583984375,-108.8818359375,-108.4912109375,-108.0029296875,-107.7099609375,-107.7099609375,-107.1728515625,-107.3193359375,-108.0029296875,-107.0751953125,-107.1728515625,-107.7099609375,-107.0751953125,-108.0029296875,-108.3935546875,-109.3212890625,-108.9306640625,-108.5888671875,-109.2724609375,-109.5654296875,-109.8095703125,-109.9560546875,-110.3466796875,-110.3466796875,-110.9814453125,-111.6650390625,-111.3720703125,-111.7138671875,-111.9580078125,-112.2021484375,-111.9580078125,-112.9345703125,-112.5439453125,-113.3251953125,-112.8369140625,-113.6181640625,-113.5205078125,-113.8623046875,-113.8134765625,-114.1552734375,-112.8369140625,-111.4208984375,-109.5654296875,-108.6865234375,-108.1005859375,-107.6611328125,-107.1728515625,-106.9775390625,-106.3916015625,-106.4404296875,-106.3916015625,-106.2939453125,-106.0986328125,-106.3916015625,-106.7822265625,-106.8798828125,-107.4658203125,-107.2216796875,-107.4169921875,-108.0517578125,-107.8076171875,-108.1005859375,-108.3935546875,-109.0771484375,-109.4189453125,-109.5166015625,-109.7119140625,-110.2490234375,-110.6396484375,-110.8837890625,-110.7373046875,-111.1279296875,-111.4208984375,-111.2255859375,-111.3232421875,-111.9580078125,-111.9091796875,-112.3486328125,-112.7880859375,-112.8369140625,-113.6181640625,-112.3974609375,-110.8349609375,-109.2724609375,-108.5400390625,-107.1728515625,-107.4658203125,-106.8798828125,-106.4892578125,-106.2451171875,-106.2939453125,-106.5380859375,-106.2451171875,-106.4404296875,-106.4892578125,-106.6357421875,-107.1240234375,-107.6611328125,-107.9541015625,-108.6376953125,-108.3447265625,-109.2236328125,-109.0283203125,-109.6630859375,-109.5166015625,-109.7607421875,-110.2001953125,-110.3466796875,-110.2978515625,-110.6396484375,-110.7861328125,-110.9814453125,-111.3720703125,-111.7138671875,-111.4208984375,-112.3486328125,-112.2509765625,-112.8857421875,-112.9833984375,-112.8369140625,-113.1787109375,-113.9599609375,-113.7646484375,-114.2529296875,-114.2529296875,-113.6181640625,-111.5185546875,-109.6630859375,-108.7841796875,-108.2958984375,-107.5146484375,-106.8310546875,-106.4404296875,-106.0498046875,-106.2451171875,-106.4404296875,-106.2939453125,-106.3427734375,-106.1962890625,-106.3427734375,-106.7333984375,-107.0263671875,-107.8564453125,-107.7099609375,-108.4423828125,-108.5888671875,-108.7841796875,-108.8818359375,-109.4189453125,-109.1748046875,-109.5654296875,-109.8583984375,-110.1513671875,-110.9326171875,-110.7373046875,-111.0302734375,-111.5185546875,-111.6162109375,-111.7138671875,-111.9580078125,-112.2509765625,-112.0068359375,-112.7392578125,-113.2275390625,-112.7392578125,-113.7158203125,-113.3740234375,-113.4716796875,-113.6181640625,-113.6669921875,-113.2763671875,-110.8349609375,-109.3701171875,-108.1982421875,-107.5146484375,-106.6845703125,-105.8544921875,-106.0986328125,-105.6591796875,-105.5126953125,-105.4638671875,-105.4638671875,-105.6103515625,-106.0498046875,-105.6103515625,-105.7568359375,-106.3916015625,-106.7333984375,-107.3193359375,-106.9287109375,-107.2216796875,-107.3681640625,-107.3193359375,-108.3447265625,-107.8564453125,-108.1982421875,-108.1982421875,-108.2958984375,-109.2236328125,-109.3212890625,-109.3212890625,-109.8095703125,-109.6142578125,-109.7607421875,-110.2490234375,-109.8095703125,-110.3466796875,-110.9326171875,-110.8349609375,-111.3232421875,-111.1279296875,-110.9814453125,-110.6884765625,-109.0771484375,-107.0263671875,-106.0498046875,-106.0498046875,-105.9521484375,-104.7314453125,-104.3896484375,-104.2431640625,-104.2919921875,-104.0966796875,-104.5361328125,-104.6337890625,-103.8525390625,-104.6337890625,-104.7314453125,-105.3662109375,-105.4638671875,-105.8544921875,-105.5615234375,-106.6845703125,-106.4404296875,-106.6845703125,-107.0751953125,-107.1728515625,-107.3681640625,-107.5634765625,-108.2958984375,-108.3935546875,-108.6865234375,-108.6865234375,-109.1259765625,-108.9794921875,-109.2236328125,-109.3701171875,-109.5166015625,-110.2001953125,-110.2490234375,-110.5419921875,-110.7373046875,-110.9814453125,-111.3720703125,-111.5673828125,-110.3955078125,-108.3935546875,-106.8310546875,-105.9521484375,-105.2685546875,-104.6826171875,-104.6826171875,-103.4130859375,-103.2177734375,-103.7060546875,-104.0478515625,-103.5595703125,-103.7548828125,-104.1943359375,-104.1455078125,-104.1943359375,-105.1708984375,-105.2197265625,-105.6103515625,-105.7080078125,-106.0009765625,-106.3916015625,-105.8544921875,-106.0498046875,-106.4892578125,-106.5869140625,-107.4658203125,-107.2216796875,-107.7587890625,-108.0517578125,-107.5634765625,-108.0517578125,-108.3447265625,-107.9052734375,-108.4423828125,-108.8818359375,-109.5654296875,-109.5654296875,-109.6630859375,-109.8095703125,-109.8583984375,-110.2490234375,-110.4443359375,-109.4189453125,-107.3193359375,-106.2451171875,-104.8291015625,-104.5849609375,-104.4384765625,-103.3642578125,-103.5595703125,-103.2177734375,-103.5595703125,-103.2666015625,-102.7294921875,-103.4619140625,-103.5107421875,-103.1689453125,-103.9990234375,-103.8037109375,-104.1943359375,-104.2919921875,-104.6337890625,-104.9755859375,-105.2685546875,-105.5615234375,-105.4638671875,-105.7080078125,-106.0986328125,-106.5380859375,-106.8798828125,-106.8798828125,-107.4658203125,-107.7099609375,-107.3193359375,-107.7587890625,-108.0029296875,-107.8564453125,-108.4912109375,-108.5888671875,-109.1259765625,-109.3701171875,-109.3701171875,-109.5654296875,-109.4189453125,-110.1513671875,-109.9072265625,-109.6142578125,-107.7099609375,-106.0009765625,-104.4873046875,-104.0478515625,-103.8037109375,-102.8271484375,-102.4853515625,-101.9482421875,-102.4365234375,-102.0947265625,-101.9970703125,-101.6552734375,-102.3388671875,-102.4853515625,-102.6318359375,-103.6572265625,-103.7060546875,-103.8525390625,-103.7060546875,-104.0966796875,-104.1943359375,-104.6337890625,-105.0732421875,-105.3173828125,-105.4150390625,-105.3173828125,-105.8056640625,-106.2939453125,-106.3916015625,-106.9287109375,-106.7333984375,-106.9775390625,-106.8798828125,-107.3193359375,-107.4658203125,-107.6123046875,-108.3447265625,-108.1494140625,-108.6865234375,-108.9306640625,-108.5888671875,-108.8330078125,-109.4189453125,-109.3212890625,-108.8818359375,-108.2958984375,-105.8544921875,-104.7314453125,-103.6572265625,-103.6083984375,-102.2900390625,-102.1923828125,-101.4599609375,-101.2158203125,-101.1669921875,-101.2646484375,-100.8740234375,-101.6064453125,-101.5576171875,-101.7041015625,-102.1923828125,-102.2900390625,-102.4853515625,-103.0712890625,-103.0712890625,-103.0712890625,-103.9501953125,-103.9501953125,-103.9990234375,-104.4384765625,-104.9267578125,-105.3173828125,-105.2685546875,-105.2197265625,-105.8544921875,-106.1962890625,-106.3916015625,-105.9033203125,-106.5380859375,-106.8310546875,-106.8798828125,-107.1728515625,-107.9052734375,-107.9541015625,-107.6123046875,-107.7587890625,-106.5380859375,-104.5849609375,-103.0224609375,-102.2412109375,-102.3388671875,-101.4599609375,-101.2646484375,-100.8251953125,-100.8740234375,-101.4599609375,-101.4111328125,-101.3134765625,-100.8740234375,-101.2646484375,-101.6064453125,-101.4111328125,-101.9482421875,-103.0712890625,-102.8759765625,-102.9248046875,-103.0224609375,-103.7548828125,-103.4619140625,-103.9013671875,-103.6083984375,-104.1943359375,-104.5849609375,-104.7802734375,-104.6826171875,-105.4150390625,-105.4150390625,-105.9033203125,-105.8056640625,-106.2939453125,-106.7822265625,-106.8798828125,-106.8798828125,-106.9287109375,-107.5634765625,-107.4658203125,-107.0751953125,-105.8544921875,-103.8525390625,-102.1435546875,-101.3623046875,-100.5322265625,-100.1904296875,-99.6044921875,-99.0673828125,-99.1162109375,-99.2626953125,-99.0673828125,-99.4580078125,-99.4091796875,-99.4091796875,-99.7021484375,-100.0927734375,-100.4833984375,-100.2392578125,-100.8740234375,-101.1181640625,-100.5810546875,-101.5576171875,-101.5576171875,-102.1435546875,-102.6806640625,-102.6318359375,-102.7294921875,-103.2177734375,-103.2666015625,-103.6083984375,-103.8037109375,-104.3408203125,-103.9013671875,-103.9990234375,-104.7314453125,-104.8291015625,-105.4150390625,-105.5126953125,-105.9033203125,-106.0498046875,-105.9521484375,-106.0009765625,-105.5126953125,-103.4619140625,-101.5087890625,-100.4345703125,-99.7509765625,-98.8232421875,-98.7255859375,-98.0419921875,-97.3095703125,-97.6025390625,-98.3349609375,-98.1396484375,-98.3837890625,-98.1884765625,-98.1396484375,-99.1650390625,-98.6279296875,-98.9697265625,-99.4580078125,-100.4833984375,-100.1416015625,-100.4345703125,-100.5810546875,-101.0205078125,-100.9716796875,-101.4111328125,-101.9482421875,-102.0947265625,-102.2900390625,-102.3876953125,-102.6806640625,-102.9736328125,-102.8759765625,-103.3154296875,-103.6572265625,-103.9501953125,-104.4384765625,-104.5361328125,-104.5361328125,-104.9267578125,-105.0244140625,-104.4384765625,-102.2900390625,-100.5322265625,-99.6533203125,-98.7255859375,-98.6767578125,-97.9931640625,-97.8955078125,-97.6025390625,-98.0419921875,-97.8466796875,-97.4560546875,-98.2373046875,-97.7001953125,-98.4326171875,-98.1396484375,-98.7744140625,-98.8232421875,-99.6533203125,-100.2392578125,-100.4833984375,-100.5810546875,-100.6298828125,-100.6787109375,-101.2158203125,-101.5576171875,-101.4111328125,-101.9970703125,-102.2900390625,-102.3876953125,-102.7294921875,-103.1201171875,-103.3154296875,-103.8037109375,-104.0966796875,-104.0478515625,-104.2919921875,-104.7314453125,-104.8291015625,-102.9248046875,-100.5810546875,-100.0439453125,-99.2138671875,-98.3837890625,-98.2861328125,-98.3349609375,-97.4072265625,-97.2119140625,-97.3095703125,-97.6025390625,-97.1142578125,-97.3583984375,-97.8955078125,-98.1884765625,-98.5791015625,-99.0185546875,-99.5556640625,-99.9951171875,-100.0439453125,-100.2880859375,-100.2880859375,-101.3623046875,-101.1669921875,-101.4599609375,-102.1923828125,-101.9482421875,-102.0947265625,-102.7294921875,-103.1201171875,-103.6083984375,-103.5595703125,-103.7548828125,-104.3408203125,-104.5849609375,-104.9755859375,-105.7080078125,-105.4638671875,-105.8056640625,-106.3916015625,-106.2939453125,-106.7822265625,-106.3916015625,-104.4384765625,-102.3876953125,-100.6298828125,-100.3857421875,-99.6533203125,-98.8232421875,-98.7255859375,-98.0419921875,-97.9443359375,-97.5048828125,-97.8955078125,-98.0908203125,-98.0908203125,-98.1884765625,-98.4814453125,-98.8232421875,-98.6767578125,-99.5556640625,-99.4091796875,-99.2138671875,-100.2880859375,-99.9462890625,-100.3369140625,-101.0693359375,-101.2646484375,-101.3134765625,-101.8017578125,-101.8994140625,-101.9970703125,-102.4365234375,-103.3154296875,-102.8759765625,-103.3642578125,-103.7060546875,-103.8037109375,-104.3896484375,-104.6337890625,-105.1708984375,-104.9267578125,-105.1220703125,-105.3173828125,-105.4150390625,-104.9755859375,-102.9248046875,-101.2646484375,-99.6044921875,-98.9697265625,-98.6279296875,-97.9931640625,-97.4072265625,-97.0166015625,-97.5048828125,-97.4072265625,-97.5048828125,-97.3095703125,-97.5048828125,-97.3583984375,-97.8466796875,-98.3837890625,-98.5302734375,-98.9697265625,-99.2138671875,-99.0673828125,-99.2626953125,-100.0439453125,-100.4345703125,-100.4345703125,-101.2646484375,-100.9716796875,-101.7041015625,-101.9482421875,-101.8994140625,-102.7783203125,-102.8759765625,-103.0224609375,-103.4619140625,-103.5595703125,-103.3154296875,-104.0966796875,-104.0966796875,-104.4873046875,-104.4384765625,-105.1220703125,-102.7783203125,-101.4111328125,-99.9462890625,-98.6767578125,-99.1650390625,-97.8955078125,-97.7978515625,-96.8701171875,-97.5537109375,-97.7978515625,-97.0166015625,-97.1630859375,-97.5537109375,-97.3583984375,-98.5791015625,-98.3349609375,-98.6279296875,-98.8232421875,-98.7744140625,-99.6533203125,-99.6533203125,-99.6044921875,-100.3857421875,-100.6787109375,-100.5810546875,-101.1181640625,-101.6552734375,-101.4111328125,-101.6064453125,-102.6318359375,-102.3876953125,-103.2177734375,-103.0224609375,-103.0712890625,-103.8037109375,-103.9501953125,-104.3408203125,-104.8291015625,-103.8037109375,-101.8994140625,-101.0693359375,-99.3603515625,-99.1162109375,-98.7744140625,-98.6279296875,-97.7490234375,-97.9443359375,-97.3095703125,-97.9931640625,-98.2861328125,-98.0419921875,-98.2373046875,-98.3837890625,-98.3837890625,-99.0673828125,-98.8720703125,-99.5556640625,-99.1650390625,-100.0927734375,-100.4345703125,-100.3857421875,-100.7763671875,-100.7275390625,-101.3134765625,-101.5576171875,-102.0458984375,-102.2412109375,-102.7294921875,-103.2177734375,-103.2666015625,-103.1689453125,-103.6572265625,-103.8525390625,-104.3408203125,-104.9267578125,-104.6826171875,-105.5126953125,-105.5615234375,-105.8056640625,-105.7080078125,-105.1220703125,-103.4130859375,-101.4599609375,-99.9462890625,-99.7021484375,-99.2626953125,-98.6767578125,-97.5048828125,-97.9443359375,-98.5302734375,-97.9443359375,-97.8955078125,-97.7001953125,-98.0908203125,-98.5302734375,-98.7744140625,-99.2138671875,-99.6044921875,-99.7509765625,-100.2392578125,-100.4833984375,-100.6787109375,-100.9716796875,-101.6064453125,-101.6064453125,-101.8017578125,-101.7041015625,-102.7783203125,-102.4365234375,-103.3642578125,-103.2177734375,-104.0966796875,-103.6083984375,-103.7548828125,-103.9990234375,-104.3408203125,-104.9755859375,-105.1220703125,-105.5126953125,-106.0009765625,-105.7080078125,-106.1962890625,-105.8544921875,-104.1455078125,-102.8759765625,-101.0205078125,-100.3369140625,-100.4833984375,-99.3603515625,-98.9697265625,-98.9208984375,-98.7744140625,-99.0673828125,-98.4814453125,-98.6279296875,-99.1162109375,-99.1650390625,-99.3603515625,-99.9462890625,-100.0439453125,-100.5322265625,-100.8740234375,-101.2646484375,-101.8017578125,-101.8017578125,-102.3876953125,-102.4853515625,-102.5830078125,-102.7294921875,-103.0224609375,-103.7060546875,-103.8525390625,-104.1455078125,-104.1943359375,-104.8291015625,-105.3662109375,-105.3173828125,-105.7080078125,-106.0498046875,-106.0009765625,-106.3916015625,-106.7333984375,-106.4404296875,-104.2919921875,-103.0712890625,-101.5576171875,-100.8740234375,-100.6787109375,-100.5810546875,-99.5068359375,-99.5556640625,-99.4091796875,-99.8486328125,-100.2880859375,-99.7998046875,-100.1904296875,-100.1416015625,-101.0205078125,-100.7763671875,-101.6552734375,-101.7041015625,-102.0458984375,-102.1923828125,-103.0712890625,-103.2666015625,-103.1689453125,-103.5107421875,-103.8037109375,-103.8037109375,-104.2919921875,-105.1220703125,-105.1220703125,-105.6591796875,-105.4638671875,-105.6103515625,-105.9521484375,-106.6357421875,-106.1962890625,-107.2705078125,-107.3193359375,-107.4658203125,-108.1005859375,-107.7587890625,-108.1494140625,-108.1494140625,-108.6865234375,-107.7099609375,-105.6591796875,-103.7548828125,-102.9736328125,-101.8994140625,-101.2158203125,-101.3623046875,-100.2392578125,-100.8740234375,-100.1904296875,-100.1904296875,-100.6787109375,-100.3369140625,-100.6298828125,-101.1669921875,-101.3623046875,-101.4599609375,-102.1923828125,-102.2900390625,-102.0458984375,-102.7783203125,-102.6318359375,-103.1201171875,-103.5595703125,-103.5107421875,-104.2919921875,-104.5361328125,-104.3408203125,-104.7802734375,-105.3173828125,-105.4638671875,-105.4638671875,-105.9521484375,-105.6591796875,-106.3427734375,-106.5869140625,-106.6845703125,-106.7333984375,-107.0263671875,-107.5634765625,-107.5146484375,-108.0029296875,-107.6123046875,-105.9521484375,-103.9990234375,-102.6806640625,-102.1435546875,-101.5087890625,-100.7763671875,-100.6298828125,-99.9951171875,-99.8974609375,-100.3369140625,-100.0927734375,-99.5068359375,-99.5556640625,-99.6044921875,-99.9951171875,-100.4345703125,-100.7763671875,-101.3623046875,-101.4111328125,-101.2158203125,-101.8017578125,-101.9970703125,-101.9970703125,-102.6318359375,-102.8759765625,-103.3642578125,-103.7548828125,-103.6572265625,-104.0478515625,-103.9990234375,-104.2919921875,-104.5849609375,-104.4873046875,-105.2197265625,-105.6591796875,-105.9033203125,-106.3427734375,-106.3916015625,-106.7822265625,-107.0751953125,-105.1708984375,-103.4619140625,-102.3388671875,-101.7529296875,-101.1181640625,-101.0205078125,-100.2880859375,-99.8486328125,-100.2392578125,-99.7509765625,-99.8974609375,-99.8974609375,-99.5556640625,-100.4345703125,-100.0927734375,-100.0439453125,-101.3623046875,-101.0693359375,-101.8017578125,-101.2158203125,-102.0947265625,-102.2900390625,-102.7294921875,-102.8271484375,-103.5595703125,-103.8525390625,-103.5107421875,-103.8525390625,-104.3896484375,-104.2919921875,-104.6337890625,-105.1708984375,-105.1220703125,-105.6591796875,-105.6591796875,-105.7080078125,-105.8056640625,-105.8544921875,-106.8310546875,-106.9287109375,-106.9775390625,-107.1240234375,-105.7080078125,-103.7548828125,-102.0458984375,-100.9228515625,-100.8740234375,-100.4345703125,-99.9462890625,-98.9208984375,-98.9208984375,-99.4091796875,-98.8720703125,-98.8720703125,-99.3603515625,-99.0673828125,-99.7509765625,-99.9951171875,-100.1416015625,-100.5810546875,-100.9228515625,-101.2158203125,-101.3623046875,-101.6552734375,-101.6552734375,-101.7529296875,-102.2900390625,-102.6806640625,-103.4619140625,-103.3154296875,-103.4130859375,-103.5107421875,-104.0966796875,-103.9990234375,-103.9013671875,-104.7314453125,-104.4873046875,-105.0732421875,-105.7080078125,-105.5615234375,-106.0986328125,-106.0009765625,-105.9521484375,-105.0732421875,-103.2177734375,-101.3134765625,-100.3857421875,-99.8974609375,-98.9208984375,-98.7255859375,-98.1884765625,-97.7490234375,-97.8466796875,-98.0908203125,-98.0908203125,-98.8232421875,-98.2861328125,-98.2861328125,-98.5302734375,-98.8720703125,-99.2138671875,-99.4580078125,-100.0439453125,-100.1416015625,-100.3857421875,-100.5322265625,-100.6787109375,-100.7275390625,-101.5087890625,-101.5087890625,-101.8994140625,-102.0947265625,-102.0458984375,-102.3388671875,-102.5341796875,-103.0712890625,-103.1689453125,-103.3154296875,-103.9501953125,-103.9501953125,-103.9013671875,-103.9013671875,-105.0244140625,-104.5849609375,-103.7548828125,-101.1181640625,-100.3369140625,-99.3603515625,-98.5302734375,-98.5302734375,-97.3583984375,-97.2607421875,-97.9443359375,-97.4560546875,-98.1884765625,-98.1884765625,-98.7255859375,-98.2373046875,-98.4326171875,-98.7744140625,-99.1162109375,-99.4091796875,-99.5556640625,-100.4345703125,-100.1416015625,-100.1416015625,-100.7763671875,-100.8251953125,-101.6064453125,-101.9970703125,-102.0458984375,-102.1435546875,-102.7294921875,-102.6318359375,-103.6083984375,-103.6572265625,-103.7060546875,-104.1455078125,-104.1943359375,-104.5849609375,-104.9267578125,-105.2197265625,-105.2197265625,-105.6103515625,-105.4638671875,-105.5126953125,-103.3154296875,-101.7529296875,-100.5322265625,-100.5322265625,-99.8486328125,-98.8232421875,-98.2373046875,-97.8466796875,-97.7490234375,-97.7978515625,-98.2861328125,-98.2373046875,-97.7490234375,-98.0419921875,-98.7255859375,-99.2138671875,-99.1162109375,-99.5068359375,-99.7998046875,-100.0927734375,-100.3857421875,-100.1416015625,-101.3134765625,-100.9716796875,-100.9716796875,-101.0693359375,-101.5576171875,-101.6552734375,-101.8505859375,-102.3876953125,-102.2412109375,-102.2900390625,-103.0224609375,-103.4130859375,-103.5595703125,-103.7060546875,-103.5107421875,-103.8037109375,-103.6083984375,-103.9990234375,-104.7314453125,-104.6337890625,-103.5107421875,-101.7041015625,-100.4345703125,-98.8720703125,-98.9208984375,-98.3349609375,-97.5537109375,-97.3583984375,-96.9189453125,-96.8701171875,-96.9677734375,-97.0654296875,-97.3095703125,-96.6748046875,-96.7724609375,-97.4560546875,-98.1396484375,-97.8466796875,-98.0419921875,-98.1884765625,-98.4326171875,-98.5302734375,-99.0673828125,-99.3603515625,-99.7509765625,-99.7998046875,-100.3369140625,-100.7763671875,-100.1904296875,-100.6787109375,-101.3623046875,-101.6064453125,-101.8994140625,-102.0947265625,-101.8994140625,-102.7783203125,-102.9248046875,-103.1201171875,-103.1689453125,-103.4130859375,-101.5576171875,-99.7021484375,-98.0419921875,-97.7001953125,-97.1630859375,-97.2607421875,-97.0654296875,-95.8935546875,-96.5771484375,-96.3330078125,-95.9423828125,-96.6259765625,-96.4306640625,-96.8212890625,-96.9189453125,-96.8212890625,-97.1142578125,-97.7001953125,-97.9931640625,-98.4326171875,-98.3349609375,-98.6767578125,-99.1650390625,-99.9462890625,-100.0439453125,-99.9951171875,-100.6298828125,-100.7763671875,-100.4345703125,-101.2646484375,-101.2646484375,-101.3623046875,-101.7041015625,-102.1923828125,-102.4365234375,-102.7294921875,-103.0224609375,-103.4130859375,-103.5107421875,-103.9501953125,-104.2431640625,-103.5107421875,-101.8017578125,-99.9462890625,-98.6767578125,-98.2373046875,-97.4560546875,-96.7724609375,-95.5517578125,-95.2587890625,-95.8935546875,-95.6005859375,-96.0400390625,-95.9912109375,-95.7958984375,-95.8935546875,-96.6748046875,-96.7236328125,-96.9677734375,-97.3583984375,-97.4560546875,-97.7001953125,-97.8466796875,-98.7255859375,-98.3349609375,-99.5556640625,-98.9208984375,-99.5068359375,-99.7509765625,-99.7998046875,-100.3369140625,-100.3369140625,-101.0205078125,-101.4599609375,-101.1181640625,-101.8017578125,-102.2412109375,-102.1435546875,-102.7783203125,-102.7783203125,-102.3876953125,-103.0224609375,-103.3154296875,-103.2666015625,-101.9970703125,-99.4580078125,-98.2373046875,-97.1142578125,-96.8701171875,-96.0888671875,-95.6982421875,-95.3564453125,-94.7705078125,-94.8681640625,-95.0634765625,-95.3564453125,-94.5751953125,-94.8193359375,-95.1123046875,-95.2587890625,-95.8935546875,-95.7958984375,-96.3818359375,-96.1865234375,-96.5283203125,-96.8212890625,-97.2119140625,-97.5048828125,-97.3583984375,-97.8955078125,-97.9443359375,-98.4326171875,-98.4326171875,-98.9697265625,-99.3603515625,-99.4580078125,-99.5068359375,-99.2138671875,-99.7021484375,-100.0927734375,-100.3369140625,-99.7998046875,-98.1884765625,-96.3818359375,-95.6005859375,-94.8681640625,-94.4775390625,-94.0869140625,-93.7451171875,-93.8427734375,-93.5009765625,-93.8916015625,-93.7939453125,-93.4033203125,-93.1591796875,-93.9892578125,-94.1845703125,-94.3798828125,-94.6728515625,-95.1123046875,-95.2587890625,-95.7958984375,-95.7470703125,-96.4306640625,-96.9677734375,-96.6259765625,-97.1142578125,-97.3095703125,-97.6513671875,-98.2373046875,-98.4814453125,-99.0185546875,-98.8720703125,-99.0673828125,-99.6044921875,-99.4580078125,-98.1884765625,-96.5283203125,-94.6728515625,-94.3310546875,-94.0380859375,-93.5009765625,-92.7197265625,-92.5244140625,-92.4755859375,-92.7197265625,-92.9150390625,-93.0615234375,-93.0126953125,-92.7197265625,-93.5009765625,-93.9892578125,-94.0380859375,-93.9892578125,-94.3798828125,-94.5263671875,-95.3564453125,-95.0146484375,-95.4541015625,-96.5283203125,-96.0400390625,-96.5771484375,-96.7236328125,-96.8212890625,-97.0166015625,-97.2607421875,-97.8466796875,-98.0419921875,-98.2861328125,-98.4326171875,-98.6767578125,-98.9208984375,-99.0673828125,-99.9951171875,-99.7509765625,-99.5068359375,-97.4560546875,-95.1123046875,-93.8916015625,-93.4521484375,-92.5244140625,-91.9873046875,-91.2060546875,-90.7666015625,-90.8642578125,-91.6455078125,-91.2060546875,-91.3525390625,-91.4013671875,-91.4501953125,-92.1826171875,-92.5732421875,-92.9150390625,-92.9638671875,-93.0126953125,-93.8427734375,-93.4521484375,-94.1845703125,-94.2333984375,-94.1845703125,-95.0634765625,-95.3564453125,-95.3564453125,-95.7470703125,-96.0400390625,-96.4794921875,-96.7724609375,-96.8212890625,-97.7490234375,-97.6513671875,-97.3583984375,-98.1396484375,-98.5791015625,-98.7255859375,-99.1650390625,-99.4580078125,-99.3603515625,-99.5556640625,-100.1904296875,-99.8486328125,-99.9951171875,-100.5810546875,-100.7275390625,-100.7763671875,-100.6298828125,-99.8486328125,-98.1396484375,-96.3330078125,-95.4052734375,-94.6728515625,-93.5986328125,-92.7197265625,-91.8896484375,-91.7919921875,-91.4990234375,-92.0361328125,-92.1826171875,-91.7431640625,-92.4267578125,-92.0361328125,-92.4267578125,-92.9638671875,-92.7197265625,-93.2080078125,-93.5009765625,-93.9404296875,-93.9404296875,-94.4775390625,-94.6240234375,-94.9169921875,-95.0634765625,-95.5517578125,-95.8935546875,-95.8447265625,-96.1376953125,-96.0400390625,-96.5283203125,-96.7236328125,-96.6748046875,-96.5283203125,-97.3095703125,-97.6513671875,-97.2119140625,-97.7490234375,-97.9931640625,-98.7255859375,-98.2373046875,-98.8232421875,-99.0185546875,-99.5068359375,-99.1162109375,-97.7001953125,-95.7470703125,-94.9658203125,-93.5986328125,-93.0126953125,-92.7685546875,-91.7919921875,-91.6943359375,-91.9384765625,-91.5966796875,-92.6708984375,-91.9873046875,-91.8896484375,-92.2802734375,-92.5244140625,-92.1826171875,-93.3056640625,-93.0126953125,-93.4033203125,-93.7451171875,-93.8916015625,-94.0380859375,-94.3798828125,-94.2333984375,-94.5263671875,-94.4775390625,-94.5263671875,-95.1123046875,-95.5517578125,-95.6494140625,-95.9912109375,-96.3818359375,-96.6259765625,-96.7724609375,-97.1142578125,-97.2607421875,-97.5048828125,-98.1396484375,-98.1396484375,-98.3349609375,-98.3349609375,-98.5302734375,-98.4814453125,-97.9931640625,-95.5517578125,-93.6962890625,-93.0126953125,-92.8173828125,-91.8896484375,-91.4013671875,-90.8154296875,-90.7177734375,-91.0107421875,-90.9130859375,-90.5712890625,-90.9619140625,-90.6689453125,-91.0595703125,-91.5478515625,-91.4501953125,-91.4501953125,-92.4267578125,-92.3779296875,-93.0615234375,-93.4521484375,-93.3056640625,-93.7939453125,-93.8916015625,-94.2822265625,-95.0634765625,-95.5029296875,-95.1611328125,-95.4052734375,-96.4794921875,-96.1376953125,-96.3818359375,-96.9189453125,-96.5771484375,-97.6513671875,-97.7490234375,-97.8466796875,-98.7744140625,-98.6279296875,-98.9208984375,-99.6533203125,-99.5068359375,-99.7998046875,-99.7998046875,-99.0673828125,-97.6025390625,-95.6982421875,-94.7216796875,-94.6728515625,-93.4521484375,-92.9150390625,-92.1826171875,-92.0361328125,-92.0849609375,-91.7431640625,-92.6220703125,-92.2802734375,-92.4755859375,-92.2314453125,-92.8173828125,-93.4521484375,-93.3056640625,-94.0869140625,-94.2333984375,-94.4287109375,-94.6728515625,-95.1611328125,-95.5029296875,-95.9912109375,-95.8935546875,-96.9189453125,-96.7236328125,-96.6748046875,-97.6513671875,-98.0908203125,-97.7490234375,-98.3349609375,-98.3837890625,-98.6279296875,-99.2138671875,-99.4580078125,-99.4580078125,-100.0439453125,-100.1416015625,-100.1416015625,-100.3369140625,-101.0205078125,-101.1669921875,-100.2392578125,-98.1884765625,-96.4306640625,-95.4541015625,-95.4052734375,-94.9169921875,-94.5751953125,-93.8427734375,-93.2568359375,-93.1591796875,-93.5986328125,-93.2568359375,-93.9892578125,-93.8427734375,-94.0869140625,-94.3310546875,-94.8193359375,-94.8681640625,-94.9658203125,-95.1611328125,-95.8447265625,-96.1865234375,-95.8447265625,-96.4794921875,-97.1142578125,-97.4072265625,-97.5537109375,-97.8466796875,-98.3349609375,-98.1396484375,-98.7255859375,-99.4091796875,-99.0673828125,-99.3115234375,-100.0439453125,-99.8974609375,-100.0439453125,-100.7763671875,-101.3623046875,-101.3134765625,-101.0205078125,-99.3115234375,-97.5048828125,-96.7724609375,-96.0400390625,-95.6982421875,-95.6494140625,-95.8935546875,-95.2099609375,-95.5029296875,-95.7958984375,-95.5517578125,-95.2099609375,-95.3076171875,-95.3564453125,-95.8935546875,-96.6748046875,-96.6748046875,-97.0654296875,-97.7490234375,-97.1142578125,-98.1396484375,-97.7978515625,-98.1884765625,-98.9208984375,-98.6279296875,-99.4580078125,-99.7998046875,-99.6044921875,-99.7998046875,-100.6298828125,-100.4833984375,-101.4599609375,-101.1669921875,-101.5576171875,-101.8994140625,-101.9482421875,-102.3876953125,-102.3876953125,-102.7294921875,-102.8271484375,-103.3154296875,-102.5341796875,-100.7275390625,-99.1162109375,-98.0908203125,-97.5048828125,-97.2119140625,-96.5771484375,-96.0888671875,-96.0888671875,-96.2841796875,-95.8935546875,-95.8447265625,-95.9423828125,-95.9912109375,-96.1376953125,-96.4306640625,-96.4306640625,-97.2119140625,-97.4560546875,-97.4560546875,-97.7001953125,-98.2861328125,-98.9208984375,-98.7255859375,-99.2138671875,-99.6044921875,-99.6533203125,-100.1416015625,-100.3369140625,-101.0693359375,-101.2158203125,-100.7763671875,-101.9482421875,-101.4599609375,-101.9970703125,-102.4853515625,-102.3876953125,-102.6318359375,-102.9248046875,-102.9736328125,-103.3642578125,-103.8525390625,-103.8525390625,-103.6572265625,-103.1689453125,-101.0693359375,-99.3115234375,-98.6279296875,-97.4072265625,-97.7978515625,-97.3583984375,-96.8212890625,-96.5771484375,-96.5771484375,-96.1865234375,-96.0400390625,-95.8935546875,-95.9423828125,-96.3330078125,-96.3818359375,-96.9677734375,-97.1630859375,-97.6513671875,-97.5048828125,-97.7490234375,-98.1884765625,-97.7978515625,-98.3349609375,-98.3349609375,-98.8232421875,-99.1650390625,-99.7021484375,-99.1650390625,-99.6533203125,-99.7998046875,-100.1904296875,-100.3857421875,-100.5322265625,-100.8740234375,-101.1669921875,-101.4599609375,-101.7529296875,-102.3388671875,-102.2900390625,-102.0458984375,-102.4365234375,-102.7783203125,-102.5341796875,-100.8251953125,-99.2626953125,-97.7978515625,-97.4560546875,-96.6748046875,-96.3330078125,-95.7470703125,-95.2587890625,-95.8447265625,-94.7216796875,-94.9169921875,-95.2099609375,-95.1123046875,-95.1123046875,-95.5517578125,-95.8447265625,-96.0888671875,-95.8447265625,-96.7236328125,-96.8212890625,-96.4794921875,-96.8212890625,-96.8212890625,-97.7490234375,-98.0908203125,-98.0908203125,-98.3837890625,-98.0908203125,-98.7744140625,-99.3115234375,-99.2138671875,-99.5068359375,-100.0439453125,-99.8974609375,-100.5322265625,-100.8740234375,-101.3134765625,-101.3623046875,-101.2646484375,-100.9716796875,-98.7255859375,-97.2607421875,-96.9677734375,-96.0888671875,-95.9912109375,-96.0400390625,-95.0146484375,-94.7705078125,-95.0634765625,-95.2587890625,-95.3564453125,-95.2587890625,-95.1611328125,-95.6005859375,-96.1865234375,-96.5771484375,-96.5771484375,-97.0166015625,-97.2119140625,-97.4072265625,-97.6513671875,-98.2373046875,-97.8466796875,-97.9931640625,-98.3349609375,-98.8720703125,-98.4326171875,-99.2626953125,-99.5556640625,-99.8486328125,-100.2392578125,-100.3369140625,-100.6298828125,-100.7763671875,-101.3134765625,-101.4599609375,-101.8505859375,-101.9970703125,-101.8505859375,-102.2900390625,-102.4365234375,-101.5576171875,-99.0673828125,-98.2861328125,-97.2119140625,-96.6748046875,-95.9912109375,-95.8447265625,-95.3076171875,-95.1123046875,-95.2099609375,-95.0146484375,-95.2587890625,-95.0146484375,-95.1611328125,-95.0634765625,-95.6982421875,-95.9912109375,-96.1865234375,-96.3330078125,-96.1865234375,-96.2841796875,-96.8701171875,-97.0654296875,-97.7001953125,-98.0419921875,-98.3349609375,-98.3837890625,-98.5302734375,-98.6767578125,-99.0673828125,-99.3603515625,-99.6533203125,-100.2392578125,-100.2880859375,-100.3857421875,-100.4345703125,-100.3857421875,-100.8251953125,-101.9482421875,-101.4599609375,-101.5087890625,-102.1435546875,-102.2900390625,-102.3388671875,-102.8271484375,-102.0947265625,-100.6298828125,-98.8720703125,-97.5537109375,-96.6748046875,-96.3330078125,-95.6005859375,-95.1123046875,-94.3310546875,-94.2333984375,-94.5263671875,-94.0869140625,-94.1357421875,-93.8427734375,-94.1845703125,-94.8193359375,-95.1123046875,-95.3564453125,-95.4541015625,-95.1611328125,-95.7958984375,-95.7470703125,-95.5517578125,-96.3330078125,-96.1376953125,-97.1142578125,-97.4072265625,-97.5048828125,-97.6025390625,-98.3349609375,-98.0908203125,-98.5791015625,-98.9697265625,-98.7744140625,-98.9208984375,-99.8974609375,-99.1162109375,-99.6044921875,-100.1416015625,-100.3369140625,-99.4580078125,-97.9931640625,-95.8447265625,-95.6005859375,-95.2587890625,-94.4287109375,-94.2822265625,-93.6962890625,-93.3056640625,-93.5986328125,-93.5986328125,-93.4521484375,-94.0380859375,-93.4521484375,-93.7451171875,-93.7939453125,-94.5263671875,-94.9658203125,-94.7216796875,-95.1123046875,-95.5029296875,-95.5029296875,-95.5029296875,-96.3330078125,-95.8935546875,-96.6259765625,-97.1630859375,-97.1142578125,-97.6513671875,-97.6025390625,-98.2861328125,-98.3349609375,-98.7255859375,-98.8720703125,-98.7744140625,-99.3603515625,-99.6044921875,-99.3603515625,-99.7509765625,-99.8486328125,-100.6787109375,-99.9951171875,-98.6767578125,-96.1865234375,-95.0146484375,-94.2333984375,-94.1845703125,-93.4033203125,-92.8662109375,-92.4267578125,-92.6708984375,-91.9873046875,-92.2802734375,-92.7197265625,-92.0361328125,-92.7197265625,-92.8173828125,-93.1591796875,-93.8916015625,-93.7451171875,-94.1357421875,-94.2333984375,-94.3310546875,-94.4287109375,-95.7958984375,-95.4052734375,-95.3076171875,-95.2099609375,-96.1865234375,-95.9912109375,-96.4794921875,-96.8212890625,-96.2353515625,-96.7236328125,-97.3583984375,-97.6025390625,-97.9443359375,-98.0419921875,-98.4326171875,-98.5791015625,-98.6767578125,-98.7255859375,-98.9208984375,-99.3115234375,-99.0673828125,-97.2119140625,-94.9658203125,-94.1357421875,-93.1103515625,-92.5732421875,-91.8408203125,-90.9130859375,-90.8642578125,-90.6201171875,-91.0595703125,-90.8154296875,-90.6689453125,-90.6201171875,-91.4013671875,-91.0595703125,-91.4990234375,-91.5966796875,-91.8896484375,-92.3291015625,-92.2314453125,-92.7197265625,-93.1103515625,-92.9150390625,-93.4033203125,-93.5498046875,-93.8916015625,-94.1357421875,-94.6240234375,-94.9658203125,-94.9169921875,-95.0146484375,-95.1611328125,-95.5517578125,-95.6005859375,-96.0888671875,-95.8447265625,-96.3818359375,-96.8701171875,-96.5771484375,-96.4794921875,-94.9169921875,-93.4033203125,-92.3779296875,-91.3525390625,-90.4736328125,-90.8642578125,-89.9365234375,-89.2529296875,-89.4482421875,-89.8388671875,-89.9365234375,-89.8876953125,-89.7412109375,-90.0341796875,-89.8876953125,-90.7666015625,-90.7177734375,-91.0595703125,-91.4013671875,-91.4501953125,-91.6455078125,-91.8896484375,-92.8173828125,-92.2802734375,-93.2080078125,-93.3056640625,-93.8916015625,-93.7939453125,-94.2333984375,-94.4287109375,-94.9658203125,-95.0146484375,-95.5029296875,-94.9169921875,-95.5029296875,-96.4306640625,-95.8935546875,-96.4306640625,-97.0166015625,-96.9677734375,-97.5537109375,-97.7001953125,-97.6513671875,-97.7001953125,-98.3837890625,-96.9189453125,-94.7216796875,-92.8662109375,-92.6708984375,-91.5478515625,-91.2060546875,-90.3759765625,-89.5947265625,-89.0576171875,-89.6923828125,-89.7900390625,-89.2529296875,-89.3994140625,-89.8388671875,-90.1318359375,-90.6201171875,-90.9130859375,-91.1572265625,-91.2060546875,-91.0595703125,-91.8896484375,-92.3779296875,-92.2802734375,-92.9150390625,-93.5986328125,-93.9892578125,-93.8916015625,-93.5498046875,-94.2822265625,-94.5263671875,-94.3798828125,-94.4287109375,-94.9658203125,-95.0634765625,-95.0634765625,-95.8447265625,-95.8935546875,-96.4794921875,-95.7470703125,-97.0654296875,-97.0654296875,-97.1142578125,-97.3583984375,-97.2607421875,-96.1865234375,-93.5498046875,-92.4267578125,-91.8408203125,-91.4013671875,-90.6689453125,-89.7900390625,-89.5947265625,-89.1552734375,-89.5947265625,-90.0341796875,-89.7412109375,-89.8388671875,-90.1318359375,-90.5224609375,-90.6201171875,-91.3037109375,-91.1083984375,-91.5966796875,-91.6943359375,-91.7919921875,-92.5732421875,-92.5732421875,-92.8173828125,-93.3056640625,-93.9892578125,-93.9892578125,-94.0380859375,-94.3798828125,-94.7216796875,-94.4775390625,-94.9658203125,-94.9169921875,-95.5517578125,-95.9423828125,-96.3818359375,-96.9677734375,-96.4306640625,-97.5048828125,-96.9677734375,-95.3076171875,-93.0615234375,-92.1826171875,-90.9619140625,-90.6201171875,-90.9619140625,-90.2783203125,-89.9853515625,-90.2294921875,-89.9853515625,-89.8388671875,-89.9853515625,-90.2294921875,-90.0341796875,-90.5712890625,-91.1572265625,-91.3037109375,-91.5478515625,-91.4501953125,-92.3779296875,-92.3779296875,-92.7197265625,-93.3544921875,-93.1103515625,-93.0126953125,-93.8916015625,-94.2822265625,-94.2822265625,-94.3798828125,-94.9658203125,-95.0146484375,-95.3564453125,-95.9423828125,-95.4541015625,-96.4306640625,-96.1865234375,-96.6259765625,-97.4072265625,-96.9677734375,-97.7490234375,-97.8466796875,-97.9931640625,-97.5537109375,-95.2587890625,-92.9638671875,-92.9150390625,-91.3037109375,-90.9130859375,-91.0595703125,-90.1806640625,-89.3017578125,-89.1064453125,-89.6435546875,-89.6923828125,-89.6435546875,-89.4970703125,-90.2294921875,-90.1806640625,-90.5224609375,-91.0107421875,-91.0107421875,-91.3037109375,-91.4501953125,-91.7919921875,-92.2802734375,-92.2314453125,-92.6708984375,-93.4033203125,-93.5986328125,-93.5498046875,-94.2822265625,-94.2822265625,-94.4775390625,-95.0634765625,-95.3564453125,-95.4052734375,-96.0888671875,-95.4052734375,-95.7958984375,-96.8212890625,-96.5283203125,-97.0166015625,-97.5537109375,-96.5283203125,-94.6728515625,-92.9150390625,-91.7431640625,-91.4013671875,-90.9130859375,-90.4248046875,-89.8388671875,-89.3505859375,-89.3505859375,-89.7900390625,-89.4482421875,-89.2529296875,-89.5458984375,-89.3017578125,-89.8388671875,-90.2783203125,-90.4736328125,-90.8642578125,-90.9130859375,-91.2060546875,-91.6455078125,-91.9873046875,-91.8408203125,-92.5244140625,-93.1103515625,-93.1591796875,-93.3056640625,-93.2568359375,-93.8916015625,-93.9404296875,-94.7216796875,-94.6728515625,-94.7705078125,-94.6728515625,-95.1123046875,-95.4052734375,-95.7470703125,-95.7958984375,-95.9912109375,-94.0869140625,-92.4267578125,-91.1572265625,-90.4736328125,-89.7412109375,-89.5458984375,-88.7158203125,-88.6181640625,-88.5205078125,-89.1064453125,-89.2529296875,-88.9111328125,-88.8623046875,-89.5458984375,-89.5458984375,-90.0341796875,-90.5224609375,-90.9619140625,-90.8154296875,-91.0595703125,-91.2548828125,-91.5478515625,-92.2802734375,-92.4755859375,-92.9150390625,-93.3544921875,-93.3544921875,-93.6474609375,-93.9404296875,-94.6240234375,-94.4287109375,-95.0634765625,-95.6005859375,-95.5029296875,-96.4306640625,-96.0400390625,-96.6259765625,-96.9677734375,-96.7724609375,-97.5537109375,-97.7490234375,-98.0908203125,-98.1884765625,-97.5537109375,-95.3076171875,-93.4033203125,-92.3291015625,-91.7919921875,-91.3525390625,-91.0595703125,-90.5224609375,-89.4482421875,-89.6435546875,-90.2783203125,-90.0341796875,-90.3759765625,-90.2783203125,-89.9853515625,-91.1572265625,-91.7919921875,-91.5478515625,-91.9384765625,-92.8662109375,-92.5732421875,-92.8173828125,-93.0126953125,-93.0126953125,-93.6474609375,-94.0380859375,-94.6240234375,-95.2099609375,-94.9658203125,-95.2587890625,-94.9169921875,-95.8935546875,-96.1376953125,-96.4794921875,-97.0166015625,-97.3583984375,-97.2607421875,-97.7978515625,-97.6513671875,-98.1884765625,-98.0908203125,-98.5302734375,-98.6767578125,-98.7255859375,-98.9697265625,-98.4326171875,-96.9677734375,-94.9169921875,-93.6962890625,-93.4033203125,-92.5244140625,-91.7919921875,-90.9619140625,-90.6689453125,-90.9130859375,-90.7666015625,-91.0107421875,-91.1083984375,-91.4990234375,-91.3037109375,-91.5478515625,-91.9384765625,-93.1103515625,-92.5732421875,-92.9638671875,-93.6962890625,-93.4521484375,-93.6474609375,-94.4775390625,-94.5751953125,-94.7705078125,-94.9658203125,-95.6982421875,-96.1865234375,-95.8447265625,-96.2353515625,-96.5283203125,-96.5771484375,-97.2607421875,-97.2119140625,-97.6025390625,-97.9443359375,-97.8955078125,-98.3837890625,-98.6767578125,-98.0908203125,-95.9423828125,-94.7705078125,-93.4521484375,-92.8662109375,-92.7685546875,-92.2314453125,-92.2314453125,-91.8408203125,-92.1337890625,-92.1826171875,-91.9873046875,-91.8896484375,-92.2314453125,-92.4267578125,-92.7197265625,-92.8173828125,-93.2568359375,-94.3798828125,-93.5009765625,-94.2822265625,-94.4775390625,-94.5263671875,-94.7216796875,-95.0146484375,-95.7958984375,-96.0888671875,-96.5283203125,-96.2841796875,-97.0654296875,-97.0654296875,-97.2607421875,-97.6513671875,-97.7978515625,-98.4326171875,-98.5791015625,-98.3837890625,-98.8232421875,-98.8720703125,-99.1162109375,-99.4091796875,-99.5556640625,-97.9931640625,-96.1865234375,-94.7705078125,-94.2333984375,-93.7939453125,-93.2568359375,-92.9638671875,-92.1826171875,-91.6455078125,-92.2802734375,-91.9873046875,-91.1083984375,-91.6943359375,-91.6943359375,-92.6220703125,-92.3291015625,-92.8173828125,-93.0126953125,-93.3056640625,-93.3056640625,-93.5009765625,-93.4521484375,-94.2333984375,-94.3798828125,-94.7705078125,-94.9169921875,-94.5751953125,-94.8681640625,-95.2587890625,-95.2587890625,-95.3076171875,-95.7958984375,-96.2841796875,-96.0888671875,-96.0888671875,-96.6259765625,-96.8701171875,-96.8701171875,-97.3583984375,-97.4072265625,-97.7490234375,-98.2373046875,-98.0419921875,-95.8447265625,-94.3310546875,-92.8662109375,-91.6943359375,-91.5478515625,-90.5712890625,-90.6201171875,-89.4970703125,-89.4482421875,-89.6435546875,-89.4970703125,-89.7412109375,-89.4970703125,-89.8388671875,-90.2783203125,-90.8642578125,-90.2783203125,-90.8154296875,-90.8642578125,-91.4501953125,-91.8408203125,-92.2314453125,-92.1337890625,-92.3779296875,-92.6220703125,-93.0126953125,-92.9638671875,-93.1103515625,-93.3544921875,-93.9404296875,-94.0869140625,-94.4775390625,-94.6240234375,-95.1123046875,-95.1123046875,-95.6494140625,-96.0400390625,-96.3818359375,-96.2353515625,-95.3564453125,-93.0615234375,-92.1826171875,-91.1572265625,-90.7666015625,-90.4736328125,-90.6689453125,-90.1806640625,-90.3271484375,-89.9853515625,-89.5947265625,-90.3271484375,-89.8388671875,-90.3759765625,-90.9619140625,-91.2060546875,-90.8154296875,-91.2060546875,-91.9873046875,-92.2314453125,-92.2802734375,-92.9638671875,-93.1591796875,-93.1591796875,-93.7451171875,-94.0380859375,-94.3310546875,-94.2333984375,-94.3798828125,-95.0146484375,-95.6494140625,-95.0146484375,-95.6982421875,-96.0888671875,-96.6259765625,-96.9189453125,-97.2119140625,-97.3583984375,-97.5537109375,-97.0654296875,-95.6982421875,-93.3056640625,-92.4755859375,-92.0849609375,-91.8408203125,-91.0595703125,-90.3759765625,-90.2294921875,-90.0341796875,-90.6689453125,-90.0830078125,-90.4248046875,-90.9130859375,-90.7177734375,-91.1572265625
