PPG_subj_13,21,F,N,Non-diabetic,91,33.909,Forehead,0.185546875,0.185546875,0.185546875,0.185546875,0.185546875,0.185546875,90.9521484375,61.4697265625,62.5927734375,62.5439453125,62.2509765625,62.2021484375,62.3486328125,62.3974609375,61.9580078125,61.5185546875,60.7373046875,60.1513671875,59.4189453125,59.0283203125,57.4169921875,56.8798828125,56.6357421875,55.6591796875,55.2685546875,54.6337890625,53.5595703125,53.0224609375,55.4150390625,58.8818359375,61.9580078125,63.1298828125,64.7900390625,66.7431640625,67.3779296875,68.3544921875,67.6220703125,67.9150390625,67.6220703125,68.0615234375,67.9150390625,67.8173828125,67.2802734375,66.4990234375,65.8642578125,65.0830078125,64.3505859375,63.1787109375,61.7626953125,61.9091796875,60.6396484375,59.4189453125,58.9794921875,58.4423828125,56.8310546875,56.5380859375,57.5146484375,60.4443359375,64.0087890625,65.4736328125,66.6943359375,68.6474609375,69.8681640625,70.1611328125,70.3564453125,69.9658203125,70.1611328125,69.2822265625,69.6728515625,69.3310546875,69.2822265625,68.5498046875,67.5244140625,66.5966796875,65.8154296875,65.0830078125,64.1552734375,64.2529296875,62.4951171875,62.2509765625,61.7138671875,60.8837890625,60.1513671875,58.7353515625,60.2001953125,64.3505859375,66.2548828125,67.6708984375,68.0615234375,69.3310546875,70.6982421875,70.5029296875,69.5751953125,69.4775390625,70.3564453125,70.2099609375,69.0869140625,68.9404296875,68.9404296875,68.5009765625,67.8662109375,66.7431640625,65.8154296875,64.7900390625,64.0087890625,63.9599609375,62.7392578125,61.5185546875,60.7861328125,59.8583984375,61.8603515625,65.3271484375,67.7197265625,69.9169921875,71.1865234375,73.4814453125,74.6044921875,74.8486328125,74.7998046875,74.4580078125,74.6044921875,74.6533203125,73.9208984375,73.8232421875,73.2373046875,72.3095703125,72.0166015625,71.0400390625,69.5751953125,68.7939453125,68.3056640625,67.0849609375,66.4013671875,65.0830078125,64.4482421875,63.3740234375,62.2509765625,61.4208984375,61.5673828125,64.3994140625,67.9638671875,70.5517578125,72.3583984375,73.8720703125,75.2392578125,76.7529296875,76.7529296875,76.5087890625,76.4599609375,76.3134765625,76.3134765625,76.0205078125,75.2880859375,75.2392578125,73.4814453125,72.8466796875,71.8701171875,70.8935546875,70.1123046875,69.2333984375,68.7451171875,66.4990234375,65.6689453125,64.4970703125,63.3251953125,62.6904296875,61.5673828125,60.4931640625,59.2236328125,59.4677734375,62.1044921875,65.9130859375,68.3056640625,70.5517578125,71.5283203125,72.2607421875,72.9931640625,73.1884765625,72.6513671875,72.9443359375,72.1142578125,71.9677734375,71.7724609375,71.7724609375,70.6494140625,70.0146484375,68.5009765625,67.4755859375,66.1083984375,65.7177734375,64.3505859375,63.9111328125,62.7880859375,62.4462890625,61.1767578125,59.8095703125,59.1748046875,58.3935546875,57.4169921875,58.7353515625,61.4697265625,64.7412109375,65.7177734375,67.1826171875,67.7685546875,68.6474609375,68.7451171875,68.2568359375,68.0615234375,67.9150390625,67.6708984375,66.8896484375,66.6943359375,66.1083984375,65.0341796875,64.8388671875,63.3251953125,62.6416015625,61.9091796875,60.8349609375,60.5908203125,59.3212890625,58.4912109375,57.9052734375,56.8310546875,56.3427734375,56.0986328125,58.0029296875,61.1767578125,63.8623046875,64.9365234375,66.7919921875,67.8173828125,68.7939453125,68.8427734375,68.4521484375,67.7685546875,67.8662109375,67.5244140625,67.4267578125,66.6943359375,66.4501953125,65.6201171875,64.6435546875,63.6181640625,62.3974609375,61.7626953125,61.1767578125,60.1025390625,59.7119140625,58.8818359375,57.6123046875,56.6357421875,56.1962890625,54.7802734375,54.7802734375,55.5126953125,59.0771484375,62.1533203125,63.4716796875,65.0341796875,66.4501953125,67.6708984375,68.4521484375,68.0126953125,67.9638671875,66.9873046875,66.6455078125,67.2802734375,66.4990234375,65.9619140625,65.5224609375,64.3017578125,63.7646484375,62.3974609375,61.9580078125,60.9814453125,59.0283203125,58.8330078125,58.1494140625,57.0263671875,56.8310546875,55.3662109375,54.8779296875,54.3408203125,54.2431640625,56.0498046875,58.6376953125,61.6650390625,62.7392578125,64.2529296875,65.8154296875,66.4013671875,66.7431640625,66.2548828125,65.2783203125,64.8388671875,64.9853515625,64.8388671875,64.2041015625,63.4716796875,63.3251953125,61.7138671875,61.3232421875,61.4697265625,59.8583984375,58.8330078125,58.0029296875,57.2705078125,56.4404296875,55.9033203125,55.0244140625,54.1943359375,53.6572265625,53.7060546875,55.0244140625,57.9052734375,60.8349609375,61.5673828125,62.4462890625,63.5693359375,64.1552734375,63.8623046875,63.5205078125,62.3974609375,62.8857421875,62.1533203125,63.0810546875,61.9580078125,61.3232421875,61.0302734375,60.3955078125,59.1259765625,58.3935546875,57.4169921875,56.8310546875,56.6845703125,55.6103515625,54.5849609375,53.8525390625,53.1201171875,52.5341796875,52.4853515625,53.5107421875,56.9775390625,59.1748046875,61.3232421875,62.0556640625,63.3740234375,64.6435546875,64.5458984375,64.0576171875,64.4970703125,64.0576171875,63.7646484375,64.3505859375,63.5205078125,63.0810546875,62.0068359375,60.8837890625,61.1767578125,60.2490234375,59.4189453125,58.4423828125,57.7587890625,57.3193359375,56.2451171875,55.3662109375,54.7314453125,54.4873046875,53.9501953125,53.3154296875,52.4853515625,53.5107421875,56.8798828125,59.0771484375,60.9814453125,62.9345703125,63.5693359375,64.3994140625,65.4736328125,65.0341796875,65.0830078125,64.3017578125,64.3017578125,64.2041015625,64.0576171875,63.3740234375,62.7392578125,61.4697265625,61.2744140625,60.4443359375,59.7119140625,58.5400390625,57.8564453125,57.2705078125,56.8798828125,55.6103515625,55.1220703125,54.2431640625,53.7060546875,53.4619140625,52.8271484375,51.9482421875,53.9501953125,56.7333984375,59.0283203125,60.2978515625,61.3720703125,62.2998046875,62.6904296875,62.9833984375,62.4462890625,61.7138671875,62.6416015625,62.3486328125,61.7626953125,61.1279296875,61.1279296875,60.4443359375,60.0048828125,59.1259765625,58.2958984375,57.5634765625,56.5380859375,56.6357421875,55.5126953125,54.9755859375,54.9267578125,53.9501953125,53.0712890625,52.3876953125,52.8759765625,54.9267578125,57.6123046875,59.9072265625,60.0048828125,61.2255859375,62.4462890625,62.7392578125,62.8857421875,62.0068359375,62.3974609375,62.0068359375,61.6650390625,61.9091796875,61.1279296875,60.9326171875,60.2001953125,59.2724609375,58.7841796875,57.4658203125,57.6611328125,56.4404296875,55.6103515625,55.3173828125,54.0966796875,53.3154296875,53.5107421875,53.0224609375,54.0966796875,57.5634765625,60.7373046875,62.1533203125,63.8134765625,64.6923828125,65.9619140625,66.5478515625,65.9619140625,66.1572265625,66.2060546875,65.9130859375,65.3759765625,66.1083984375,65.1318359375,64.1064453125,64.2529296875,63.3740234375,61.9091796875,62.1044921875,61.1767578125,60.1025390625,59.5166015625,58.9306640625,58.1005859375,57.3193359375,56.9775390625,56.1962890625,55.7568359375,55.6103515625,58.4423828125,61.7138671875,63.5205078125,65.3759765625,66.7431640625,68.2080078125,68.8427734375,69.2822265625,69.0869140625,68.5498046875,68.5009765625,68.7451171875,68.9892578125,67.2314453125,67.5244140625,66.3525390625,65.9130859375,65.3759765625,64.3017578125,63.9111328125,62.5927734375,62.2509765625,61.5673828125,60.2001953125,59.6142578125,58.7353515625,57.9052734375,56.9287109375,56.1962890625,56.0986328125,57.2216796875,60.2978515625,62.3486328125,64.2529296875,64.7900390625,65.6201171875,66.7919921875,66.7431640625,66.5478515625,66.4990234375,66.0595703125,66.6943359375,66.0107421875,66.2060546875,65.3759765625,64.9853515625,64.3017578125,63.7646484375,62.4462890625,61.9580078125,60.9814453125,60.8349609375,59.5654296875,58.8330078125,59.3212890625,57.7587890625,57.1728515625,56.6845703125,58.9306640625,61.1279296875,63.9111328125,65.0830078125,65.5224609375,66.4013671875,67.3291015625,67.5732421875,67.5244140625,66.8896484375,67.0361328125,66.6455078125,66.2060546875,66.0595703125,65.5712890625,64.5947265625,64.3505859375,63.5693359375,62.7880859375,62.4951171875,61.5185546875,60.2490234375,60.4443359375,58.9794921875,58.6376953125,57.1240234375,57.4169921875,56.1474609375,56.8798828125,59.7119140625,63.2275390625,64.4482421875,66.1572265625,68.0126953125,68.9892578125,70.0146484375,70.3076171875,70.2099609375,69.5263671875,69.6240234375,69.9169921875,69.9658203125,69.7216796875,68.6474609375,68.3056640625,67.3779296875,66.7919921875,66.2060546875,65.7177734375,64.1552734375,63.5205078125,62.3974609375,62.0068359375,60.6884765625,60.6884765625,58.7841796875,58.9306640625,57.6611328125,57.9541015625,57.5146484375,59.3212890625,63.4716796875,65.6689453125,66.6455078125,68.3544921875,70.2099609375,71.4306640625,71.3330078125,71.2353515625,70.7470703125,70.7958984375,71.2353515625,70.7958984375,70.5517578125,69.5263671875,68.6474609375,67.8662109375,67.0849609375,66.6943359375,66.3037109375,64.7900390625,64.0576171875,63.5205078125,62.2509765625,61.4208984375,60.5419921875,59.8583984375,59.2236328125,58.9794921875,58.1494140625,56.6845703125,57.7587890625,60.6396484375,63.4228515625,65.2294921875,66.1083984375,67.8662109375,68.4033203125,69.2333984375,68.8427734375,68.3056640625,68.0126953125,68.0126953125,67.9150390625,68.0126953125,67.0849609375,66.6455078125,66.2060546875,64.9853515625,64.7412109375,63.6669921875,63.2763671875,62.3486328125,61.2744140625,60.8349609375,60.7373046875,59.8095703125,59.1259765625,58.0517578125,57.2705078125,59.6630859375,63.4716796875,66.0107421875,66.7919921875,67.5244140625,69.2333984375,69.7216796875,69.5263671875,69.6240234375,69.1357421875,68.7451171875,68.6474609375,68.7939453125,67.7685546875,67.5732421875,66.6455078125,65.4248046875,64.9853515625,64.3017578125,63.7646484375,62.3486328125,62.2509765625,61.2255859375,60.0048828125,59.6142578125,58.6376953125,58.2470703125,56.8310546875,57.8076171875,60.0537109375,64.1064453125,66.1572265625,67.3779296875,68.9404296875,70.6982421875,71.4794921875,71.7236328125,71.3330078125,71.3818359375,70.8447265625,70.8935546875,71.2841796875,70.3076171875,69.8193359375,68.8427734375,68.1103515625,67.1826171875,66.5966796875,65.1318359375,64.9853515625,64.1552734375,63.0810546875,62.5439453125,61.3232421875,60.2490234375,59.8095703125,58.7353515625,58.5888671875,57.9052734375,58.1982421875,59.7119140625,62.9345703125,66.1572265625,67.2802734375,68.0126953125,69.7216796875,70.5517578125,70.9423828125,70.6982421875,70.3564453125,69.7216796875,69.2822265625,69.6728515625,69.0380859375,68.1103515625,67.8662109375,66.5478515625,66.2548828125,65.1318359375,64.2529296875,63.5205078125,62.9345703125,62.0556640625,60.4931640625,60.2978515625,59.6142578125,58.5888671875,58.1005859375,57.5634765625,57.2705078125,57.9052734375,61.5673828125,64.0087890625,65.0830078125,66.0107421875,66.8408203125,67.3779296875,67.0361328125,67.3779296875,66.6455078125,66.4501953125,66.2548828125,65.8154296875,65.3271484375,65.1318359375,64.1552734375,63.5205078125,62.5927734375,62.6416015625,61.0791015625,60.4931640625,60.1513671875,59.2236328125,58.6376953125,57.6611328125,58.1494140625,57.2216796875,57.2705078125,59.0771484375,62.5439453125,64.9365234375,66.3525390625,67.0849609375,68.3544921875,69.3310546875,69.0380859375,69.1357421875,68.6474609375,68.8916015625,68.7451171875,68.6474609375,68.0615234375,67.5732421875,67.2314453125,66.5478515625,65.4248046875,65.0830078125,63.8623046875,63.5205078125,63.1787109375,61.5673828125,60.9814453125,60.2001953125,59.6630859375,58.8818359375,58.1982421875,57.9052734375,59.2724609375,62.7392578125,65.9130859375,67.6708984375,68.9892578125,70.9423828125,72.7001953125,73.1884765625,72.9931640625,72.7978515625,72.8466796875,72.7001953125,72.5537109375,71.6748046875,71.2353515625,71.1376953125,70.8447265625,69.2822265625,68.9892578125,67.8662109375,67.2802734375,66.5478515625,65.9619140625,64.5947265625,64.8388671875,63.2275390625,62.3486328125,61.7138671875,61.2255859375,60.5908203125,59.8583984375,60.1025390625,62.2021484375,66.0595703125,67.7685546875,68.9892578125,70.9912109375,71.5283203125,72.3583984375,72.1630859375,71.5771484375,71.6748046875,72.3095703125,72.0654296875,71.8212890625,71.8701171875,71.1376953125,70.1123046875,69.3310546875,68.7939453125,67.6708984375,67.1337890625,66.6943359375,65.5224609375,65.5224609375,64.0576171875,62.9345703125,63.1787109375,61.8603515625,61.5673828125,64.6923828125,67.5732421875,69.9658203125,70.9912109375,71.9189453125,73.2861328125,74.1162109375,73.6767578125,74.1162109375,73.9208984375,73.4326171875,73.4814453125,73.2861328125,72.6513671875,72.1142578125,71.7236328125,70.6982421875,69.7705078125,68.7451171875,68.6474609375,67.6708984375,67.0849609375,66.0595703125,65.5224609375,64.6923828125,63.4716796875,62.6416015625,62.2509765625,63.4716796875,67.7197265625,70.2099609375,71.7236328125,73.8232421875,75.4345703125,77.0947265625,77.5830078125,77.4365234375,77.1435546875,77.3388671875,76.8994140625,76.9970703125,77.7294921875,76.3134765625,75.7763671875,75.0927734375,73.9208984375,73.8720703125,72.4072265625,71.4306640625,71.2841796875,70.5029296875,69.7705078125,68.8916015625,68.1591796875,66.8896484375,65.7177734375,65.1318359375,64.6435546875,63.4716796875,64.2529296875,67.6708984375,71.3818359375,72.5537109375,74.6533203125,75.6787109375,78.2177734375,79.1455078125,78.7548828125,79.1943359375,78.6083984375,79.1455078125,78.9013671875,78.5595703125,78.3154296875,77.6806640625,76.5087890625,76.1181640625,75.6298828125,74.1650390625,74.1650390625,72.6025390625,72.2119140625,71.2353515625,70.0146484375,69.7216796875,69.1357421875,67.9150390625,66.9384765625,65.7666015625,65.2783203125,64.3017578125,66.1083984375,69.3798828125,72.1630859375,73.3837890625,74.5556640625,75.6298828125,77.0947265625,77.4853515625,77.1435546875,76.8505859375,77.1435546875,77.2412109375,77.2900390625,76.6552734375,75.8251953125,76.1669921875,74.4580078125,73.6767578125,73.5302734375,72.0166015625,71.4306640625,71.2841796875,69.8193359375,69.1357421875,68.5009765625,66.9384765625,66.5966796875,64.8876953125,65.0341796875,65.4248046875,68.9404296875,72.1630859375,74.2138671875,74.9951171875,76.5087890625,77.9736328125,78.6572265625,78.1201171875,78.1689453125,77.7294921875,78.2177734375,77.8759765625,77.7294921875,76.8505859375,76.6064453125,75.4345703125,74.7021484375,74.2138671875,73.4326171875,72.1630859375,71.1376953125,70.3076171875,69.7705078125,69.3310546875,67.9638671875,66.1572265625,65.5224609375,65.8642578125,63.8623046875,63.7646484375,63.5205078125,65.8642578125,68.8916015625,71.9189453125,73.7744140625,74.4580078125,76.8505859375,77.1435546875,77.6318359375,77.7783203125,76.8505859375,76.6552734375,76.4599609375,76.5087890625,76.3134765625,76.2158203125,75.0439453125,73.9208984375,73.1884765625,72.9931640625,71.7724609375,70.6005859375,69.9169921875,69.5263671875,67.9638671875,67.3291015625,66.5478515625,65.3759765625,64.3505859375,63.8134765625,63.0322265625,62.1044921875,61.8115234375,64.1552734375,66.7919921875,69.5751953125,70.4052734375,71.5771484375,72.4560546875,72.8466796875,73.3837890625,72.2119140625,72.2607421875,71.9677734375,71.7236328125,71.4794921875,70.8935546875,70.4541015625,69.7705078125,68.6474609375,68.1591796875,67.9150390625,66.2060546875,66.1083984375,64.9853515625,64.2529296875,63.2275390625,62.3974609375,62.0556640625,61.2744140625,60.8837890625,61.9091796875,64.7900390625,67.7685546875,69.2333984375,70.2099609375,71.6748046875,73.0419921875,72.7978515625,72.5537109375,71.8701171875,71.9189453125,71.8212890625,71.7236328125,71.2841796875,70.7958984375,70.2099609375,68.6474609375,68.2080078125,67.5244140625,66.4013671875,65.8154296875,64.7412109375,64.1552734375,62.8857421875,62.2998046875,61.4697265625,60.9814453125,60.1513671875,59.7607421875,58.9794921875,59.9072265625,62.7392578125,65.7666015625,67.9638671875,69.5263671875,70.7958984375,72.3095703125,72.7978515625,72.6025390625,72.2607421875,72.1630859375,71.9677734375,71.0888671875,71.0888671875,71.0400390625,69.4287109375,68.5009765625,67.8662109375,66.7919921875,65.8642578125,65.3271484375,64.5458984375,63.6181640625,63.0322265625,62.2998046875,61.7626953125,60.7861328125,60.0537109375,59.6142578125,58.2958984375,58.2958984375,58.4423828125,59.9072265625,63.2763671875,64.7412109375,65.9130859375,66.3525390625,67.9638671875,68.7939453125,67.7197265625,68.0126953125,67.4267578125,67.6220703125,67.3291015625,67.1826171875,67.0849609375,66.4990234375,65.1806640625,64.4482421875,63.8623046875,63.2275390625,61.7626953125,61.5673828125,60.7861328125,60.1025390625,59.2724609375,58.7841796875,58.4423828125,57.9052734375,57.9541015625,59.8095703125,63.2763671875,64.8388671875,65.6201171875,66.7431640625,67.7685546875,68.3056640625,67.2802734375,67.0849609375,67.0361328125,66.2060546875,66.7919921875,65.8642578125,65.3759765625,64.9365234375,64.2529296875,63.1787109375,62.5927734375,62.1044921875,61.2744140625,60.9326171875,60.1513671875,59.7607421875,59.0771484375,58.3447265625,57.9052734375,57.7587890625,60.2978515625,63.8623046875,65.6201171875,66.7919921875,68.5009765625,69.6728515625,71.3330078125,70.9912109375,70.7958984375,70.5029296875,70.6982421875,70.3076171875,71.0400390625,69.8193359375,69.7216796875,69.0380859375,68.4521484375,68.0126953125,66.8896484375,66.0595703125,65.3759765625,64.7900390625,63.8134765625,63.1298828125,62.2021484375,61.0791015625,60.3466796875,61.1279296875,62.5439453125,66.0595703125,68.5986328125,70.5517578125,71.6259765625,72.7490234375,73.8720703125,74.5068359375,74.1162109375,73.7744140625,73.8720703125,73.8232421875,73.8720703125,73.4814453125,72.7001953125,72.1142578125,71.5771484375,70.5029296875,69.8681640625,69.4775390625,68.1103515625,67.5732421875,67.1337890625,65.9130859375,66.1083984375,64.4970703125,63.9111328125,63.9599609375,65.9619140625,69.4287109375,71.4794921875,72.3095703125,72.3095703125,74.3603515625,74.9951171875,74.9951171875,73.9208984375,74.6533203125,74.2626953125,74.1162109375,73.7255859375,73.5302734375,73.0419921875,72.4072265625,71.9677734375,71.5771484375,70.3076171875,69.7216796875,69.3798828125,68.0615234375,67.4755859375,67.1826171875,65.8154296875,65.5712890625,68.3056640625,71.9189453125,74.1650390625,75.4833984375,77.5830078125,78.3642578125,79.5849609375,79.6826171875,79.9755859375,80.3173828125,79.8291015625,80.2197265625,79.8779296875,80.0244140625,79.2431640625,78.3642578125,77.6318359375,77.1923828125,76.1669921875,74.8486328125,74.9462890625,73.8720703125,73.0419921875,72.2119140625,71.5283203125,71.1865234375,70.0146484375,69.2333984375,70.1123046875,73.5302734375,77.2900390625,79.3896484375,80.7568359375,82.1728515625,84.2236328125,85.4443359375,85.2978515625,85.3955078125,85.9814453125,86.1767578125,85.5908203125,85.6396484375,84.6142578125,83.9306640625,83.3935546875,83.0517578125,81.3427734375,81.4404296875,80.0732421875,79.3896484375,78.5107421875,78.2666015625,76.2646484375,76.2158203125,74.7509765625,73.4814453125,72.8955078125,71.7724609375,70.7958984375,72.3583984375,76.2158203125,79.8291015625,81.4404296875,83.0029296875,84.5166015625,85.9326171875,86.1767578125,85.7373046875,85.9326171875,85.8837890625,85.2001953125,85.6884765625,84.8583984375,84.6142578125,83.0029296875,82.8076171875,82.5634765625,80.8544921875,80.3662109375,79.8779296875,78.9990234375,77.9248046875,76.6064453125,75.9228515625,74.6044921875,73.6767578125,72.4560546875,72.9443359375,74.4091796875,78.5107421875,81.0498046875,81.8310546875,82.8564453125,83.9306640625,84.9560546875,84.3701171875,83.5888671875,83.6865234375,84.0771484375,84.1259765625,83.7841796875,83.1982421875,82.1728515625,81.2451171875,80.9521484375,79.5361328125,78.4619140625,78.0224609375,77.3388671875,76.0205078125,75.3857421875,74.7021484375,73.1396484375,72.2607421875,71.3330078125,72.4560546875,75.5810546875,79.8291015625,82.3193359375,83.7353515625,85.4931640625,86.5673828125,87.6416015625,87.9345703125,86.7626953125,86.8115234375,86.6650390625,86.6162109375,86.8603515625,85.7861328125,85.0537109375,84.6630859375,84.2236328125,82.6611328125,82.0751953125,81.0009765625,80.1220703125,79.7802734375,79.1455078125,77.2900390625,76.5576171875,75.7763671875,74.5068359375,73.7744140625,73.3349609375,76.2158203125,79.9267578125,83.5400390625,85.3955078125,87.2509765625,89.0087890625,90.1806640625,91.2060546875,90.6689453125,91.0107421875,90.3759765625,90.7177734375,90.4248046875,90.3271484375,89.8388671875,88.5205078125,87.7392578125,87.2021484375,85.9814453125,85.2978515625,83.6865234375,83.1494140625,82.0263671875,81.0498046875,79.4384765625,78.2666015625,77.9736328125,76.6552734375,75.6298828125,74.8486328125,73.8720703125,75.5810546875,79.1943359375,82.7099609375,84.6630859375,86.3720703125,87.6416015625,88.7646484375,89.5458984375,88.5693359375,88.9599609375,88.2763671875,88.5693359375,88.2763671875,87.9345703125,87.2021484375,86.6162109375,85.8837890625,84.6142578125,83.7841796875,82.6611328125,81.8310546875,81.2939453125,80.3662109375,79.6337890625,78.2177734375,77.7783203125,76.6552734375,75.1904296875,76.4599609375,81.0498046875,84.4677734375,85.5419921875,87.0068359375,88.6669921875,89.6923828125,90.2294921875,89.8876953125,89.4970703125,89.7412109375,90.1806640625,89.5947265625,89.7900390625,88.3251953125,87.4951171875,87.2021484375,86.1279296875,85.2001953125,84.3212890625,83.2470703125,82.0263671875,80.8056640625,79.8779296875,79.0966796875,78.1201171875,76.7529296875,75.2392578125,75.1416015625,76.5576171875,80.5615234375,84.7607421875,86.3720703125,88.6181640625,90.5224609375,91.7431640625,92.9638671875,92.8173828125,92.3291015625,92.2314453125,92.4755859375,92.2802734375,91.8408203125,91.3037109375,91.2060546875,89.1552734375,88.5205078125,87.8857421875,86.8115234375,85.6396484375,84.7607421875,83.5400390625,82.2705078125,81.6845703125,80.1708984375,78.8037109375,77.9248046875,76.7041015625,75.5810546875,74.2626953125,73.6279296875,74.2626953125,78.7548828125,82.9052734375,85.2978515625,86.7626953125,88.3251953125,89.6435546875,90.7666015625,90.0830078125,89.6435546875,89.7412109375,90.2783203125,90.1806640625,89.9853515625,88.3740234375,87.8369140625,87.0556640625,86.6650390625,85.0048828125,83.8330078125,82.9052734375,81.5380859375,80.8544921875,79.6826171875,78.4619140625,78.1689453125,76.1669921875,75.8251953125,75.2392578125,74.4580078125,74.1650390625,77.4853515625,81.5869140625,83.3447265625,84.1748046875,85.4931640625,86.8115234375,87.2509765625,86.5185546875,86.2255859375,85.8837890625,85.8349609375,84.9072265625,85.6396484375,84.1259765625,83.4912109375,82.8076171875,82.0263671875,80.7568359375,79.7314453125,79.0966796875,78.1689453125,77.2900390625,76.0205078125,75.1416015625,74.8486328125,72.9931640625,72.2119140625,72.2119140625,74.9462890625,79.3408203125,81.7822265625,82.8076171875,84.5654296875,86.0791015625,87.2509765625,87.4951171875,86.8603515625,87.1533203125,86.4697265625,86.7138671875,86.4697265625,85.9814453125,85.1025390625,84.0283203125,83.2958984375,82.2705078125,81.0009765625,80.4150390625,79.5849609375,78.1201171875,77.0947265625,76.6064453125,75.3857421875,74.3603515625,73.7744140625,72.1142578125,71.8212890625,70.7958984375,73.4814453125,77.9736328125,80.9033203125,82.2216796875,83.9306640625,85.5908203125,87.4951171875,87.5439453125,87.5439453125,86.2255859375,86.1767578125,86.5673828125,86.2744140625,85.8349609375,85.1513671875,83.6376953125,82.5146484375,82.1728515625,80.5615234375,79.7802734375,78.8525390625,78.4130859375,77.8759765625,76.5087890625,75.3857421875,74.6044921875,73.8232421875,72.0654296875,71.2353515625,70.4541015625,70.3564453125,72.9443359375,76.4111328125,79.0966796875,80.5615234375,81.9775390625,83.2470703125,83.6376953125,84.5654296875,83.0029296875,82.9541015625,82.9541015625,83.7353515625,82.8076171875,82.6123046875,81.2451171875,80.8056640625,79.9755859375,79.2431640625,78.6083984375,77.8271484375,76.6552734375,75.7275390625,74.7998046875,74.4091796875,73.5302734375,72.1142578125,72.3583984375,71.3818359375,73.6279296875,77.8759765625,79.8291015625,81.2939453125,82.1728515625,83.4423828125,84.7119140625,84.2724609375,83.9794921875,83.8330078125,83.7353515625,83.5888671875,84.0283203125,83.0517578125,82.5634765625,81.7822265625,81.1474609375,79.9267578125,79.4873046875,78.7060546875,77.8271484375,76.8505859375,76.1669921875,75.1904296875,74.9951171875,73.7255859375,72.7001953125,74.9951171875,78.3642578125,82.4169921875,84.4677734375,85.8349609375,87.7880859375,89.3017578125,91.0107421875,90.8154296875,90.7177734375,90.3759765625,90.3271484375,90.5712890625,89.8388671875,89.4482421875,89.3017578125,88.4228515625,87.7880859375,87.3486328125,86.0791015625,85.4931640625,85.0048828125,83.5888671875,82.6611328125,81.7822265625,81.1962890625,79.9755859375,79.3896484375,78.4130859375,80.5126953125,85.2978515625,87.8369140625,89.4970703125,91.4501953125,93.0126953125,94.9658203125,95.2587890625,95.3076171875,95.3564453125,95.1611328125,95.2587890625,95.2587890625,95.2587890625,93.8916015625,94.1357421875,93.8427734375,92.1826171875,91.8408203125,91.0595703125,89.6435546875,88.5693359375,87.8369140625,86.6650390625,85.8837890625,85.3955078125,83.5888671875,82.9052734375,82.8564453125,84.4677734375,88.6669921875,91.0107421875,92.5244140625,93.8916015625,94.6240234375,96.3818359375,95.6005859375,95.5517578125,95.9423828125,95.3076171875,95.7470703125,95.8935546875,94.9169921875,94.4775390625,94.0380859375,93.1103515625,92.1826171875,91.3525390625,90.3759765625,89.5947265625,88.5693359375,88.0322265625,86.7138671875,85.5908203125,84.7119140625,84.6142578125,87.9345703125,92.5732421875,94.6728515625,96.1376953125,97.6513671875,99.8486328125,100.8740234375,100.8740234375,100.7763671875,101.0205078125,101.2646484375,101.2646484375,101.1669921875,100.4833984375,100.4345703125,99.3603515625,98.2373046875,97.7490234375,96.2841796875,95.5517578125,94.4287109375,93.4521484375,92.1337890625,91.2548828125,90.1806640625,89.3994140625,88.0322265625,86.9091796875,85.9326171875,87.2998046875,91.7431640625,96.4306640625,98.3837890625,100.7275390625,102.9248046875,104.4384765625,106.4404296875,106.5869140625,105.8544921875,105.7568359375,106.8798828125,106.7333984375,107.0263671875,105.6591796875,104.7314453125,103.9990234375,102.6318359375,101.8017578125,100.5810546875,99.6533203125,99.1650390625,97.4072265625,96.6259765625,95.5517578125,94.3798828125,92.8662109375,92.0849609375,90.2294921875,88.9599609375,88.6669921875,87.1044921875,89.6435546875,94.4287109375,98.4326171875,100.1904296875,102.0458984375,103.5595703125,105.6103515625,106.4892578125,105.9521484375,105.3173828125,105.3662109375,105.5126953125,105.1220703125,105.0244140625,104.0478515625,103.1201171875,102.4853515625,100.9716796875,100.0927734375,99.0185546875,97.3095703125,96.5771484375,95.4541015625,94.5263671875,93.3544921875,92.1826171875,91.0107421875,90.5224609375,89.0087890625,88.0810546875,87.0068359375,90.0341796875,94.2822265625,97.1630859375,98.1884765625,99.6044921875,101.2158203125,101.9970703125,102.3388671875,100.6298828125,101.0205078125,100.8251953125,100.6298828125,100.3369140625,100.0927734375,98.7744140625,97.6513671875,96.9677734375,95.6005859375,94.7705078125,94.1845703125,92.7685546875,91.5966796875,90.7177734375,89.4970703125,88.1787109375,86.9580078125,86.2744140625,85.0537109375,83.9306640625,86.8115234375,90.7177734375,94.3310546875,97.1142578125,98.0908203125,99.7998046875,101.0693359375,101.5576171875,101.3623046875,100.9228515625,100.6298828125,101.1181640625,100.2880859375,99.7509765625,98.4326171875,97.7490234375,96.7724609375,95.9423828125,95.1611328125,93.8427734375,92.2802734375,91.3037109375,90.2783203125,88.9599609375,88.2275390625,86.8603515625,85.8349609375,84.7607421875,83.6865234375,82.2705078125,82.5146484375,85.0048828125,90.2783203125,92.3779296875,94.2822265625,95.6005859375,97.4560546875,98.5791015625,98.9208984375,98.3349609375,97.4560546875,97.6513671875,97.3583984375,97.1630859375,96.4306640625,95.2099609375,94.2822265625,93.0126953125,92.3779296875,91.1572265625,89.9853515625,89.1552734375,87.6416015625,86.7138671875,85.6884765625,84.6630859375,83.5400390625,82.1728515625,81.7822265625,80.8544921875,79.9755859375,81.1474609375,83.8818359375,87.8369140625,89.4970703125,90.3271484375,91.2060546875,92.5732421875,92.6220703125,92.4267578125,91.8896484375,91.3037109375,91.9384765625,91.4501953125,90.3271484375,89.7412109375,89.0087890625,88.2275390625,86.8115234375,86.6650390625,85.4931640625,84.3212890625,83.6376953125,82.2216796875,81.9287109375,80.5615234375,79.9267578125,78.9013671875,77.6806640625,78.5595703125,81.9775390625,85.2978515625,87.8369140625,89.0576171875,90.4736328125,91.8408203125,92.0849609375,92.4755859375,91.8408203125,91.4990234375,91.4990234375,91.4013671875,91.3037109375,90.1318359375,89.7412109375,88.8134765625,88.2275390625,86.7626953125,86.2744140625,84.7119140625,83.7841796875,83.1494140625,81.5380859375,80.6103515625,79.8291015625,78.6572265625,78.2666015625,77.6318359375,77.4365234375,80.1220703125,84.7607421875,87.5927734375,89.3505859375,90.8642578125,92.5244140625,93.5009765625,94.1357421875,93.2080078125,93.0615234375,93.4521484375,92.7197265625,92.6220703125,92.6708984375,91.5478515625,90.6689453125,89.8388671875,89.1552734375,87.7880859375,87.0556640625,85.7861328125,84.6142578125,83.7841796875,83.1494140625,82.4658203125,80.9521484375,79.9267578125,78.9501953125,78.1201171875,77.2900390625,79.6826171875,83.4423828125,86.7138671875,88.2275390625,89.8388671875,90.1806640625,91.7919921875,91.7431640625,91.3037109375,90.5712890625,90.6689453125,91.1572265625,90.8154296875,89.7900390625,89.5947265625,88.3740234375,86.9091796875,86.3720703125,85.7861328125,84.9072265625,83.5888671875,82.7587890625,82.0263671875,81.1962890625,80.4150390625,79.4873046875,78.0224609375,79.0478515625,81.6357421875,85.5419921875,86.9091796875,87.4951171875,88.8623046875,89.7900390625,91.0595703125,89.9365234375,89.5458984375,89.7412109375,89.0576171875,89.4970703125,89.2041015625,87.2998046875,88.2275390625,86.6162109375,85.1513671875,84.9560546875,83.7841796875,82.7587890625,82.0263671875,81.4404296875,80.7080078125,79.3896484375,78.6083984375,78.3154296875,78.0712890625,81.3427734375,85.2001953125,87.1533203125,88.2763671875,90.1318359375,92.0361328125,92.2314453125,92.5732421875,92.2802734375,91.9384765625,92.0849609375,92.1337890625,91.5966796875,92.0849609375,90.4248046875,89.6923828125,89.3017578125,87.7880859375,86.9091796875,86.4208984375,84.7607421875,84.4677734375,83.3447265625,82.4658203125,81.8310546875,81.1962890625,80.0732421875,78.8525390625,80.6591796875,83.8330078125,87.5439453125,89.5947265625,91.0107421875,92.7197265625,94.0380859375,94.9658203125,94.4287109375,93.9892578125,94.2822265625,94.3798828125,94.1357421875,93.8916015625,93.4033203125,92.2314453125,91.7431640625,90.4736328125,90.4248046875,88.9599609375,88.7646484375,87.2021484375,86.6650390625,86.0791015625,85.0048828125,84.4189453125,83.2470703125,82.3681640625,81.1962890625,80.6103515625,82.8564453125,86.3720703125,89.6435546875,90.0341796875,91.4501953125,93.0615234375,94.3310546875,94.2333984375,93.7939453125,93.0615234375,93.4033203125,93.4521484375,93.3544921875,93.1103515625,92.2314453125,91.2060546875,90.8642578125,90.2783203125,89.9853515625,89.2041015625,87.9833984375,86.9091796875,86.1279296875,84.9072265625,83.8818359375,83.0517578125,82.9541015625,83.0517578125,86.9580078125,90.2294921875,92.0849609375,93.7939453125,94.7705078125,96.3330078125,97.1630859375,96.9677734375,96.6259765625,96.9189453125,96.3818359375,95.7958984375,95.5029296875,95.0146484375,94.5263671875,93.4033203125,92.5732421875,91.6455078125,90.3759765625,90.4248046875,89.5458984375,88.4228515625,87.3486328125,86.1279296875,85.2490234375,84.1748046875,82.2705078125,82.8076171875,85.8349609375,89.8876953125,92.5732421875,94.9169921875,96.2353515625,97.9931640625,99.4580078125,99.7998046875,99.7509765625,99.3115234375,99.4091796875,99.7509765625,99.5068359375,98.8232421875,98.0908203125,97.2119140625,96.4306640625,95.3076171875,94.2333984375,93.7939453125,92.5244140625,91.5966796875,90.7177734375,89.6923828125,88.1298828125,87.3486328125,86.7626953125,84.9072265625,84.8583984375,86.6162109375,90.8154296875,94.3798828125,95.8447265625,97.0654296875,98.8232421875,99.8486328125,100.2880859375,99.9951171875,99.7021484375,99.7998046875,99.7509765625,99.1162109375,98.9697265625,98.8232421875,97.1630859375,96.9189453125,95.9912109375,95.1611328125,93.5986328125,93.1103515625,92.4755859375,91.2060546875,90.1318359375,89.0087890625,87.9833984375,87.4951171875,86.9580078125,90.0830078125,94.0869140625,96.7724609375,96.7724609375,98.7744140625,100.2392578125,100.9228515625,100.7763671875,100.7275390625,100.1416015625,100.5322265625,100.6787109375,100.4345703125,98.9208984375,98.8232421875,98.2373046875,96.7724609375,95.7958984375,95.4541015625,94.7216796875,93.4033203125,92.6220703125,92.5244140625,90.4248046875,89.4970703125,88.9599609375,91.2548828125,95.9423828125,99.6533203125,100.6298828125,103.1689453125,104.1943359375,105.9033203125,107.0263671875,106.7822265625,106.2451171875,107.2705078125,107.3193359375,107.0751953125,106.9775390625,106.4892578125,105.5126953125,104.2431640625,103.7060546875,102.5830078125,101.8017578125,100.6298828125,100.2880859375,100.1416015625,99.0673828125,97.3583984375,95.8935546875,94.7705078125,93.5986328125,93.8916015625,98.4814453125,102.8271484375,104.6826171875,107.0263671875,109.0771484375,111.2255859375,112.4951171875,112.9345703125,112.6904296875,113.3251953125,112.8857421875,113.1298828125,113.0810546875,112.0556640625,111.8115234375,111.0791015625,110.0537109375,108.8330078125,107.3193359375,106.4404296875,105.7568359375,104.7802734375,103.0712890625,102.3388671875,100.7275390625,99.7509765625,98.6767578125,99.3603515625,103.2177734375,107.6123046875,109.4189453125,110.8837890625,112.3486328125,114.3994140625,115.4736328125,114.5458984375,114.2041015625,114.7412109375,114.8876953125,115.1806640625,114.1552734375,113.3251953125,112.6416015625,111.7138671875,110.3955078125,109.5654296875,108.9306640625,107.4169921875,106.8798828125,105.8056640625,104.3896484375,104.0478515625,102.5341796875,101.7529296875,101.5087890625,104.6826171875,108.7353515625,111.2255859375,112.6904296875,114.4970703125,116.4013671875,117.6708984375,117.4267578125,118.2568359375,118.1591796875,118.5986328125,118.5498046875,118.3056640625,117.6220703125,117.1826171875,116.4013671875,115.8642578125,114.8876953125,113.6181640625,113.2763671875,111.8603515625,111.4208984375,109.8095703125,108.7841796875,108.0517578125,106.9775390625,109.1259765625,114.3505859375,118.1103515625,119.9658203125,122.5048828125,125.4833984375,127.4853515625,129.3896484375,130.0244140625,129.8291015625,130.1708984375,130.5126953125,130.6591796875,131.2939453125,129.7314453125,129.7314453125,129.0966796875,128.3154296875,127.1435546875,125.8740234375,124.8486328125,124.0673828125,122.8955078125,122.3583984375,121.1376953125,119.5751953125,118.2568359375,117.9638671875,116.4990234375,117.8662109375,122.5048828125,126.7529296875,129.7802734375,131.7822265625,135.2001953125,138.1298828125,139.9365234375,140.2294921875,140.1318359375,141.2548828125,141.4501953125,142.0361328125,141.7919921875,141.0107421875,141.1572265625,139.8876953125,139.8876953125,138.3740234375,137.4951171875,136.0791015625,135.0537109375,134.1259765625,132.6611328125,131.6845703125,130.3173828125,129.0478515625,128.0712890625,126.2158203125,125.2392578125,124.3603515625,123.2373046875,127.6318359375,132.7587890625,135.4931640625,137.5439453125,139.6435546875,142.2314453125,144.0869140625,144.4287109375,144.0869140625,144.6240234375,144.8193359375,144.9658203125,145.0146484375,144.7705078125,143.0615234375,143.0615234375,141.9873046875,140.7666015625,140.0341796875,139.2041015625,138.0322265625,137.3486328125,136.1279296875,134.4677734375,133.1005859375,131.9287109375,130.2197265625,129.1455078125,130.8056640625,135.8837890625,139.3017578125,141.4501953125,143.7939453125,146.9189453125,149.3603515625,150.2392578125,150.8740234375,151.0205078125,151.3623046875,151.6552734375,151.1669921875,151.6552734375,151.0205078125,149.9462890625,148.9697265625,147.7001953125,146.2353515625,145.5029296875,143.4033203125,142.7197265625,141.5966796875,139.7412109375,137.6904296875,136.4208984375,135.0537109375,133.0517578125,131.3916015625,130.1220703125,128.3642578125,127.9736328125,131.7822265625,136.6650390625,140.5224609375,142.0849609375,144.6728515625,148.4326171875,150.5810546875,151.6552734375,151.2646484375,150.5322265625,151.0693359375,151.4111328125,151.0205078125,150.5810546875,149.1650390625,148.0908203125,146.5771484375,145.5029296875,144.1845703125,142.6708984375,140.9619140625,139.4970703125,138.5693359375,135.9814453125,134.8095703125,132.5634765625,131.0009765625,129.5849609375,128.4130859375,126.3623046875,124.7021484375,123.3837890625,122.2119140625,124.4091796875,129.1943359375,133.6376953125,135.4443359375,136.9580078125,139.1552734375,140.8154296875,140.6689453125,140.2294921875,139.3505859375,140.1806640625,140.1806640625,139.3017578125,138.8623046875,137.2998046875,136.6162109375,134.6630859375,133.4423828125,132.4658203125,130.5126953125,129.5361328125,127.7783203125,126.7529296875,125.2880859375,124.0673828125,122.4072265625,121.2353515625,119.6240234375,118.6474609375,118.4033203125,122.1630859375,126.5087890625,129.2431640625,130.3662109375,132.0751953125,133.6865234375,135.5419921875,134.8583984375,134.7119140625,134.2236328125,133.8330078125,133.8330078125,132.8076171875,132.0751953125,131.4892578125,130.0244140625,129.0966796875,127.5830078125,125.8740234375,124.1650390625,122.8955078125,121.2841796875,119.5751953125,118.2568359375,117.3291015625,115.4248046875,114.0576171875,113.0810546875,111.5185546875,111.1279296875,113.5205078125,118.4521484375,122.9443359375,124.8974609375,126.4599609375,128.8525390625,130.1708984375,130.8544921875,131.1962890625,130.1708984375,130.0732421875,130.0732421875,129.3896484375,128.8037109375,128.3154296875,127.1923828125,125.1416015625,123.9208984375,122.7978515625,120.8447265625,120.0634765625,118.4521484375,117.0361328125,116.1572265625,114.6435546875,113.1787109375,111.2744140625,110.4931640625,109.0771484375,108.1005859375,107.0263671875,105.9033203125,107.5634765625,113.2763671875,116.3037109375,118.8916015625,120.5517578125,122.0166015625,123.8720703125,123.9697265625,124.1162109375,122.5048828125,121.7724609375,122.3095703125,121.9677734375,121.3818359375,120.3076171875,118.9892578125,118.1103515625,116.4013671875,115.0341796875,114.1552734375,112.9833984375,112.2509765625,110.0048828125,109.0283203125,107.7099609375,106.6357421875,105.9033203125,104.4384765625,103.7548828125,102.7294921875,106.3427734375,110.4931640625,113.1787109375,114.9365234375,115.2294921875,116.7919921875,117.6220703125,117.0361328125,116.4501953125,115.4248046875,115.5712890625,115.1318359375,114.9853515625,114.1064453125,113.4716796875,111.8603515625,111.2744140625,110.1513671875,108.8330078125,108.3447265625,106.6845703125,105.4150390625,104.1455078125,103.7060546875,102.4853515625,101.1669921875,100.5810546875,100.0927734375,103.9501953125,108.2958984375,111.6162109375,112.7880859375,114.7900390625,116.1572265625,117.8173828125,117.7685546875,116.9384765625,116.4501953125,116.4501953125,116.4501953125,115.7666015625,114.3994140625,113.8623046875,113.7158203125,112.5439453125,110.7861328125,109.6630859375,108.4912109375,108.0517578125,106.5869140625,105.7080078125,104.6337890625,103.9990234375,102.9248046875,101.7529296875,100.9228515625,100.5810546875,104.0478515625,109.2236328125,111.8115234375,114.4482421875,116.3525390625,117.3291015625,119.5263671875,119.5751953125,119.4775390625,118.6474609375,118.5986328125,119.1357421875,118.3544921875,118.2568359375,117.0849609375,116.1083984375,114.5947265625,113.6181640625,112.6904296875,111.6650390625,111.3720703125,109.8583984375,108.4423828125,107.7587890625,106.8798828125,105.3173828125,104.1455078125,103.0712890625,102.3388671875,101.8017578125,103.2666015625,107.9052734375,111.7626953125,113.8623046875,116.1083984375,116.5966796875,118.7451171875,119.0380859375,118.5498046875,118.5009765625,117.5244140625,117.4267578125,117.8173828125,117.6220703125,116.1083984375,115.6201171875,114.4970703125,113.1298828125,112.5927734375,111.3720703125,110.7373046875,109.8095703125,108.8330078125,108.1494140625,107.2216796875,106.1474609375,104.7314453125,103.2666015625,102.7294921875,103.6572265625,108.1005859375,111.9580078125,113.9111328125,114.3505859375,116.4990234375,117.4267578125,117.6220703125,117.4267578125,116.7919921875,117.0361328125,116.6455078125,116.4501953125,116.4013671875,115.3271484375,114.5458984375,113.1298828125,112.4462890625,111.5185546875,109.9072265625,109.1748046875,107.9541015625,107.6611328125,106.0986328125,105.3173828125,103.8037109375,103.3642578125,101.8994140625,103.0712890625,107.7587890625,111.4208984375,114.2529296875,115.6689453125,117.3779296875,118.5498046875,119.9169921875,119.7216796875,119.0869140625,119.0380859375,118.6474609375,118.7451171875,118.4521484375,117.6220703125,116.4990234375,115.9619140625,114.3017578125,113.4228515625,113.0810546875,111.6650390625,111.3720703125,109.6142578125,109.3701171875,107.8076171875,106.9287109375,106.0498046875,104.3896484375,104.0478515625,103.0224609375,104.8779296875,109.5654296875,113.8623046875,115.7177734375,117.6220703125,119.2333984375,121.2841796875,121.6748046875,121.1865234375,120.3564453125,120.8935546875,120.4541015625,120.6494140625,119.9658203125,119.1357421875,117.9638671875,117.4267578125,116.4990234375,115.7177734375,114.4482421875,113.5205078125,112.3974609375,110.7861328125,110.1513671875,108.7841796875,107.7587890625,106.5380859375,105.7568359375,105.0244140625,103.8525390625,103.5595703125,106.4404296875,110.7861328125,113.3740234375,115.7666015625,116.4990234375,118.1103515625,119.6240234375,119.4287109375,118.9404296875,118.5009765625,118.5498046875,118.7451171875,118.5498046875,117.8173828125,116.9384765625,116.5966796875,115.0341796875,114.2529296875,113.4716796875,112.1533203125,111.2255859375,110.6884765625,109.3701171875,108.7841796875,107.7587890625,106.5869140625,105.6103515625,104.2919921875,104.6826171875,106.6845703125,111.2255859375,114.0576171875,115.9619140625,117.3291015625,118.7451171875,120.0146484375,119.3798828125,118.6474609375,118.4521484375,118.1103515625,119.0869140625,118.6474609375,117.3291015625,116.9384765625,116.8408203125,114.8388671875,114.1552734375,112.7392578125,111.8603515625,110.7373046875,109.9072265625,108.3935546875,107.9052734375,107.0263671875,106.0498046875,104.8291015625,103.9501953125,104.2431640625,107.5634765625,112.4951171875,115.5712890625,117.6708984375,119.3798828125,121.2841796875,122.3095703125,122.8466796875,122.4560546875,122.1630859375,122.5537109375,122.1142578125,121.7724609375,121.2353515625,120.2099609375,119.8193359375,118.3544921875,117.1337890625,115.8642578125,115.4736328125,114.3994140625,113.2763671875,111.7138671875,110.9814453125,109.9072265625,108.4912109375,107.6123046875,106.1962890625,105.7080078125,104.3408203125,103.9013671875,106.6357421875,112.2509765625,116.4990234375,117.9638671875,119.6728515625,121.3818359375,122.5537109375,122.3095703125,122.5048828125,122.6025390625,121.8701171875,122.0654296875,122.2119140625,120.8447265625,120.6982421875,120.1611328125,118.9892578125,117.2314453125,116.3037109375,115.2294921875,114.1064453125,113.3251953125,111.9580078125,111.0791015625,109.4189453125,108.8330078125,107.5634765625,106.5869140625,106.0009765625,104.8291015625,103.4619140625,105.9033203125,110.1025390625,114.0087890625,115.0341796875,116.6943359375,117.4267578125,119.0380859375,119.3310546875,118.1103515625,117.8173828125,117.8173828125,118.0615234375,117.1337890625,116.4501953125,115.3271484375,114.6435546875,114.3994140625,112.7880859375,111.7626953125,111.1279296875,110.0537109375,108.9794921875,107.9052734375,107.0263671875,106.0009765625,104.5849609375,104.2919921875,103.2666015625,103.6572265625,108.2470703125,111.9091796875,113.5205078125,115.6689453125,117.3291015625,117.8173828125,118.7939453125,118.5498046875,117.7685546875,117.4267578125,117.4755859375,117.5732421875,116.5966796875,115.9619140625,115.0341796875,114.1064453125,113.3740234375,112.5927734375,111.1767578125,110.2001953125,109.2236328125,107.9052734375,106.8310546875,106.2939453125,105.0244140625,104.3408203125,103.1689453125,102.4853515625,101.9970703125,102.3876953125,107.0751953125,110.5908203125,113.0810546875,114.4970703125,116.4501953125,118.2568359375,118.5986328125,118.6474609375,117.9638671875,117.8662109375,117.3291015625,117.4267578125,117.5244140625,116.4501953125,116.0595703125,114.5458984375,113.6181640625,112.9833984375,111.6650390625,110.3466796875,109.8583984375,108.1005859375,107.5146484375,106.3427734375,105.9033203125,104.3896484375,103.8525390625,102.7294921875,102.0947265625,100.8740234375,101.0205078125,102.6318359375,106.2939453125,109.9560546875,112.2509765625,112.8369140625,114.5458984375,115.2783203125,115.7666015625,114.6923828125,114.0576171875,114.3017578125,114.2529296875,113.8623046875,113.1298828125,112.8369140625,111.6162109375,111.1767578125,110.2490234375,109.4677734375,108.1982421875,107.5146484375,106.6357421875,106.0009765625,104.8291015625,102.8759765625,102.4853515625,101.8994140625,101.4111328125,100.8251953125,102.7783203125,106.5380859375,110.1513671875,111.5673828125,112.1044921875,113.6181640625,114.4482421875,114.7900390625,114.4970703125,113.9599609375,113.2275390625,113.9111328125,113.1787109375,112.8369140625,112.2509765625,110.6396484375,109.8095703125,109.1748046875,108.7353515625,107.9541015625,106.6357421875,106.0986328125,104.5849609375,103.7060546875,103.1201171875,102.4853515625,101.0693359375,99.9462890625,100.6787109375,102.9248046875,107.8564453125,110.9326171875,112.4951171875,114.5947265625,116.0107421875,116.8408203125,117.7197265625,117.0361328125,116.5966796875,116.3037109375,116.5966796875,116.5478515625,115.4736328125,115.2783203125,114.3017578125,113.2275390625,112.7392578125,111.4208984375,110.0537109375,109.4189453125,108.3447265625,107.2705078125,106.3427734375,104.9755859375,103.9501953125,103.5107421875,102.4365234375,101.8994140625,101.4111328125,103.7548828125,108.1494140625,111.8603515625,113.1787109375,114.7412109375,116.6943359375,117.4755859375,118.3056640625,116.9384765625,116.7919921875,117.4755859375,116.2548828125,116.5478515625,115.9619140625,115.3271484375,114.6435546875,113.2763671875,112.7392578125,111.4697265625,110.4443359375,109.6142578125,109.2236328125,108.1494140625,106.5380859375,105.7568359375,105.7568359375,104.2919921875,103.4619140625,102.9248046875,102.4853515625,105.4638671875,110.1025390625,111.8603515625,112.4951171875,113.9111328125,113.9599609375,115.2783203125,114.4482421875,114.3505859375,114.5947265625,113.7158203125,114.1064453125,114.0087890625,112.9345703125,112.2998046875,111.6162109375,110.8837890625,109.0283203125,108.7353515625,107.4169921875,107.3681640625,106.4404296875,105.1708984375,104.2431640625,103.5595703125,102.4853515625,102.0947265625,103.1201171875,107.3681640625,110.8349609375,113.2763671875,114.3505859375,115.8642578125,117.2802734375,118.5009765625,117.9150390625,116.8408203125,116.2060546875,117.0361328125,116.9384765625,116.3037109375,115.9619140625,114.7412109375,114.2041015625,113.1787109375,111.7626953125,111.2255859375,109.4189453125,109.0283203125,108.1982421875,107.4169921875,106.3916015625,105.1708984375,104.4384765625,103.4130859375,102.4365234375,103.1201171875,106.0009765625,110.2490234375,113.5205078125,115.5712890625,117.2314453125,118.6962890625,119.4775390625,120.2099609375,120.0146484375,119.5263671875,119.2333984375,119.7705078125,118.7451171875,118.1591796875,117.9638671875,116.5966796875,116.0595703125,115.1318359375,114.3017578125,112.6904296875,111.6650390625,110.4931640625,109.7119140625,109.2236328125,107.4658203125,107.3193359375,106.2451171875,104.9267578125,103.6083984375,103.5107421875,102.8759765625,105.8056640625,110.6884765625,113.1787109375,115.1318359375,116.5966796875,117.6220703125,119.2822265625,119.2333984375,118.3544921875,118.1591796875,117.8173828125,117.8662109375,117.6220703125,117.1337890625,115.8642578125,115.4248046875,114.5947265625,114.2041015625,113.0322265625,111.4697265625,110.1513671875,110.2978515625,108.6865234375,107.9541015625,107.1728515625,105.7568359375,104.9755859375,104.8291015625,103.6572265625,106.6357421875,110.5908203125,113.8623046875,114.9365234375,116.4990234375,117.1337890625,118.3056640625,118.1103515625,117.5732421875,117.1826171875,117.6220703125,117.7197265625,117.3779296875,117.1337890625,116.0107421875,115.0341796875,114.0576171875,113.5693359375,112.6904296875,111.6650390625,111.0302734375,109.7119140625,109.2724609375,108.1982421875,107.5146484375,106.2939453125,104.8779296875,105.7568359375,108.8818359375,113.8134765625,116.7431640625,118.6474609375,120.2099609375,121.4794921875,123.4814453125,123.0908203125,122.7490234375,122.7490234375,123.3349609375,123.2373046875,122.5537109375,122.4560546875,121.4794921875,120.9912109375,120.1611328125,118.8427734375,117.5732421875,116.9384765625,116.2548828125,115.0830078125,113.7158203125,113.0810546875,111.2744140625,110.9326171875,110.1025390625,108.4912109375,107.6123046875,107.4169921875,107.5146484375,112.6416015625,116.8896484375,119.7216796875,122.1630859375,123.5791015625,125.5322265625,126.5087890625,126.6064453125,126.6064453125,126.5087890625,126.6552734375,126.2646484375,126.5087890625,126.0693359375,124.5068359375,124.0673828125,122.6513671875,121.5283203125,120.2587890625,119.3310546875,118.5986328125,117.1826171875,116.3037109375,115.0341796875,114.1064453125,113.0322265625,111.4697265625,111.5673828125,110.1025390625,109.6630859375,108.2470703125,108.0029296875,110.5419921875,115.1318359375,118.0615234375,119.7216796875,121.7724609375,122.6513671875,123.8232421875,124.1162109375,123.3837890625,122.8955078125,122.5537109375,123.2373046875,122.7490234375,122.5048828125,121.4306640625,120.3564453125,119.1845703125,118.2080078125,116.7431640625,116.4990234375,115.1806640625,114.3994140625,112.8857421875,112.5439453125,111.0791015625,109.9560546875,108.5888671875,108.6376953125,107.8076171875,109.2236328125,113.5205078125,116.6455078125,118.8427734375,119.4775390625,121.2841796875,122.3095703125,122.3095703125,121.4306640625,120.3564453125,120.6005859375,120.5517578125,119.9169921875,119.5751953125,118.8916015625,118.5498046875,117.2314453125,115.8642578125,115.3271484375,114.8876953125,113.3740234375,112.4951171875,111.7626953125,110.4443359375,109.4189453125,108.3935546875,106.9287109375,105.9521484375,107.3681640625,110.2001953125,114.5947265625,118.1591796875,119.4775390625,120.9912109375,121.9677734375,124.0673828125,123.4814453125,123.3349609375,122.6513671875,122.9443359375,122.5048828125,122.6025390625,121.9677734375,120.9423828125,120.1123046875,119.3798828125,118.1103515625,117.2314453125,115.9130859375,114.5458984375,113.8134765625,113.4716796875,112.0068359375,110.6884765625,109.2724609375,108.8330078125,107.3681640625,106.5869140625,106.0498046875,108.5888671875,113.3740234375,116.5966796875,119.0869140625,120.2099609375,121.9189453125,123.1396484375,124.6044921875,123.4814453125,122.7978515625,122.7978515625,122.8955078125,122.0166015625,122.4560546875,121.4306640625,120.4541015625,119.1845703125,118.1103515625,116.8896484375,116.1572265625,114.3017578125,113.7646484375,112.7880859375,111.5673828125,110.2978515625,109.7119140625,108.6376953125,107.5146484375,106.7333984375,105.7568359375,106.5869140625,110.1513671875,114.2041015625,115.8642578125,117.5244140625,118.5009765625,119.1357421875,120.3564453125,119.9658203125,119.3310546875,119.6240234375,118.9404296875,118.9892578125,117.9150390625,117.0361328125,116.4501953125,115.7666015625,114.7412109375,113.7158203125,113.3251953125,111.6162109375,110.7861328125,110.5908203125,108.7841796875,108.0029296875,107.8564453125,106.0498046875,106.0498046875,109.1748046875,114.3017578125,116.7919921875,117.9638671875,119.2822265625,120.9912109375,120.9423828125,121.5283203125,120.8447265625,120.4541015625,120.2587890625,119.6240234375,119.6728515625,119.2333984375,118.0615234375,117.1337890625,116.2548828125,116.2060546875,115.5712890625,114.3505859375,113.5205078125,112.3486328125,111.3720703125,110.1025390625,109.2724609375,108.1005859375,107.3193359375,106.6845703125,108.4423828125,113.5205078125,117.0849609375,119.1845703125,120.6494140625,122.7001953125,124.7021484375,124.8486328125,125.1416015625,124.5068359375,124.0185546875,125.2392578125,124.0673828125,123.9697265625,123.7744140625,122.6025390625,121.2353515625,120.7470703125,119.8193359375,118.4033203125,117.5244140625,116.5478515625,115.2294921875,114.3017578125,113.4228515625,112.2509765625,111.3720703125,110.1513671875,109.3212890625,108.8330078125,111.4208984375,116.3525390625,119.3310546875,121.5283203125,123.1396484375,124.7509765625,125.8251953125,125.9716796875,125.0927734375,125.5322265625,125.5810546875,124.7021484375,124.5556640625,124.4580078125,123.1396484375,122.9931640625,121.8701171875,121.0400390625,119.8193359375,118.8427734375,117.8173828125,116.4501953125,115.6689453125,114.2041015625,113.0322265625,111.9580078125,111.2255859375,109.9560546875,109.0283203125,110.1025390625,114.0576171875,118.0126953125,120.2099609375,120.5517578125,121.7724609375,123.6767578125,123.2861328125,122.6513671875,121.9677734375,122.1630859375,121.9677734375,121.8701171875,121.5771484375,120.4541015625,119.8681640625,118.8916015625,118.7939453125,117.3779296875,116.1572265625,115.3271484375,114.5458984375,113.5205078125,112.4951171875,112.1044921875,110.3955078125,110.3466796875,109.2236328125,111.4697265625,117.0849609375,119.5263671875,120.9912109375,123.2861328125,124.2138671875,125.5810546875,125.5810546875,125.1904296875,124.5068359375,124.4091796875,124.9462890625,124.7021484375,123.7255859375,123.2861328125,122.4072265625,121.1865234375,120.2587890625,119.6240234375,118.8427734375,117.3779296875,116.5966796875,115.8642578125,114.9365234375,113.5205078125,112.8857421875,111.9091796875,111.0302734375,109.9560546875,109.6142578125,112.8857421875,117.9638671875,121.1376953125,123.2861328125,124.4580078125,126.8017578125,127.8759765625,128.4130859375,127.4853515625,127.4853515625,127.6806640625,127.4365234375,127.0458984375,126.9970703125,125.1416015625,124.8486328125,124.0673828125,122.6513671875,121.5771484375,120.6982421875,120.0146484375,118.5009765625,117.8662109375,116.6943359375,115.7177734375,114.4970703125,113.0810546875,112.4462890625,112.0556640625,110.7373046875,109.5166015625,109.8583984375,113.1787109375,118.5986328125,121.6748046875,122.4560546875,124.2138671875,125.7763671875,126.7041015625,126.2158203125,126.7041015625,125.9716796875,126.1669921875,125.8740234375,124.7998046875,124.9462890625,123.7255859375,123.2373046875,122.1142578125,121.2841796875,120.1123046875,119.4287109375,118.2568359375,117.1826171875,116.4501953125,115.0830078125,114.2041015625,113.1787109375,112.7392578125,111.2255859375,109.9072265625,111.0791015625,114.4970703125,118.9892578125,120.8447265625,121.9189453125,122.2607421875,124.1162109375,124.3115234375,123.3837890625,123.3837890625,123.0419921875,123.5302734375,123.2861328125,122.6513671875,122.3583984375,121.2353515625,120.3564453125,119.9169921875,118.5498046875,118.2568359375,116.5966796875,115.7177734375,114.8876953125,113.7158203125,112.7392578125,111.7138671875,111.3720703125,110.1025390625,109.9072265625,114.2529296875,118.9892578125,121.7724609375,123.3837890625,125.0439453125,125.8740234375,127.1435546875,127.7783203125,127.4365234375,126.7529296875,126.9970703125,127.0458984375,127.0458984375,126.9970703125,125.3857421875,124.5068359375,123.7744140625,123.1884765625,122.4072265625,120.3564453125,119.6728515625,118.9404296875,117.1337890625,116.3525390625,115.3759765625,114.8388671875,113.7646484375,112.5439453125,111.8603515625,111.4208984375,114.3505859375,120.6494140625,123.7744140625,126.0205078125,126.7529296875,128.9013671875,130.3662109375,130.1220703125,130.3173828125,130.1708984375,130.4150390625,130.4150390625,130.0244140625,129.6337890625,129.0478515625,128.5107421875,127.6318359375,126.8994140625,125.4345703125,124.4091796875,122.9443359375,122.1142578125,121.3818359375,120.2587890625,119.0869140625,117.7197265625,116.4990234375,115.8154296875,115.2294921875,113.1298828125,112.7392578125,114.5947265625,120.3076171875,123.3349609375,125.9228515625,127.1923828125,128.8525390625,129.5361328125,129.8291015625,129.3408203125,129.2919921875,129.4873046875,129.6826171875,129.2431640625,129.0966796875,128.5107421875,126.5576171875,126.1669921875,125.2392578125,124.0185546875,123.3349609375,121.7724609375,121.9189453125,120.6005859375,119.6240234375,118.8916015625,117.7197265625,116.1572265625,115.4248046875,114.1064453125,115.8642578125,120.4052734375,124.1162109375,125.6298828125,126.8994140625,128.6083984375,129.6337890625,129.3408203125,128.8525390625,127.9736328125,128.6083984375,128.0224609375,127.9248046875,127.6806640625,126.8017578125,125.8251953125,124.4091796875,124.3115234375,122.6513671875,121.7724609375,121.5283203125,120.0634765625,119.2822265625,117.9150390625,116.7919921875,115.9130859375,115.0830078125,113.7646484375,115.0830078125,119.6240234375,124.0673828125,126.2646484375,127.9736328125,129.7802734375,131.5869140625,132.3193359375,131.9287109375,132.2216796875,131.6845703125,131.8310546875,131.6357421875,131.3916015625,131.0009765625,130.3662109375,128.7060546875,127.8759765625,126.6552734375,125.8251953125,125.3857421875,123.8720703125,123.2861328125,122.0654296875,120.9423828125,119.7216796875,118.6474609375,117.4755859375,116.6943359375,115.8642578125,114.7412109375,115.0341796875,119.1845703125,124.3115234375,127.4365234375,128.8525390625,131.0498046875,132.9541015625,134.3701171875,134.2724609375,134.2724609375,133.5888671875,134.1748046875,133.7841796875,133.5400390625,133.1494140625,132.2216796875,130.9521484375,130.2685546875,129.3408203125,127.6806640625,126.4599609375,125.9716796875,124.7509765625,123.1396484375,122.2119140625,121.3330078125,120.1123046875,119.2822265625,118.4033203125,116.4990234375,115.8154296875,114.2529296875,114.0576171875,114.9365234375,119.4775390625,123.4326171875,125.5322265625,127.7294921875,128.7548828125,130.4150390625,130.9521484375,130.4638671875,130.0732421875,129.9267578125,129.6826171875,129.7802734375,129.2919921875,128.6572265625,127.6806640625,126.8017578125,125.6787109375,125.2880859375,123.0419921875,123.1396484375,122.3095703125,121.1376953125,119.9658203125,119.1357421875,118.5986328125,117.1826171875,116.5966796875,115.5224609375,116.8896484375,122.3583984375,125.2880859375,127.2412109375,128.3642578125,129.6337890625,131.1962890625,130.9033203125,130.5126953125,129.4873046875,130.0244140625,129.7802734375,129.6337890625,128.7548828125,128.5595703125,127.1435546875,126.6552734375,125.4833984375
PPG_subj_13,21,F,N,Non-diabetic,91,33.909,Earlobe,0.185546875,0.185546875,0.185546875,0.185546875,0.185546875,0.185546875,84.9462890625,-86.8017578125,-86.6552734375,-86.9970703125,-86.4111328125,-86.6552734375,-86.6064453125,-86.6064453125,-86.6064453125,-86.8994140625,-87.8759765625,-87.1923828125,-88.1201171875,-88.2666015625,-88.3642578125,-89.2431640625,-89.6337890625,-90.1220703125,-90.6103515625,-90.5126953125,-91.5380859375,-90.7568359375,-89.5849609375,-88.8037109375,-88.6572265625,-87.5830078125,-87.2900390625,-85.9716796875,-85.6787109375,-85.6787109375,-84.7021484375,-83.7255859375,-84.4580078125,-84.2138671875,-83.9697265625,-84.7509765625,-84.7021484375,-84.8486328125,-85.6298828125,-86.5576171875,-86.1669921875,-86.6552734375,-87.0458984375,-87.6318359375,-88.3642578125,-89.1943359375,-90.0244140625,-90.4638671875,-91.1474609375,-90.7568359375,-89.4873046875,-88.9013671875,-88.7060546875,-88.2666015625,-87.5341796875,-86.7041015625,-86.7041015625,-86.2158203125,-85.2392578125,-84.8486328125,-85.0927734375,-84.4580078125,-85.6787109375,-85.1416015625,-86.1669921875,-86.5087890625,-86.4111328125,-86.1669921875,-87.7294921875,-87.5341796875,-87.5341796875,-87.8271484375,-88.3642578125,-88.4619140625,-89.5361328125,-89.7802734375,-90.2197265625,-90.0244140625,-88.4130859375,-87.9736328125,-87.3388671875,-87.1923828125,-86.2158203125,-85.6298828125,-84.9462890625,-85.0927734375,-84.3115234375,-84.2626953125,-83.5302734375,-82.9443359375,-83.2861328125,-83.1396484375,-83.1396484375,-83.4814453125,-84.0673828125,-83.9208984375,-84.4091796875,-83.8232421875,-84.4580078125,-85.3369140625,-86.0205078125,-86.4599609375,-85.8740234375,-85.1904296875,-83.4326171875,-82.1630859375,-81.0400390625,-79.6728515625,-78.0126953125,-77.1826171875,-76.2548828125,-75.1318359375,-74.3505859375,-73.9111328125,-73.5205078125,-72.8857421875,-72.7880859375,-72.2021484375,-72.7880859375,-72.9345703125,-72.5927734375,-73.0322265625,-73.1787109375,-73.7158203125,-74.4970703125,-74.3994140625,-74.4482421875,-75.8154296875,-76.1083984375,-76.9384765625,-77.5732421875,-75.5712890625,-74.1064453125,-73.3251953125,-72.3974609375,-70.2490234375,-69.9560546875,-68.5400390625,-68.1982421875,-68.2470703125,-67.9541015625,-68.1494140625,-68.2958984375,-68.5888671875,-69.1748046875,-69.9072265625,-70.6396484375,-71.0791015625,-72.6904296875,-72.8369140625,-73.2763671875,-74.4482421875,-75.3759765625,-76.4013671875,-77.9150390625,-78.6474609375,-79.6728515625,-81.3330078125,-82.6513671875,-83.7744140625,-85.3369140625,-85.3369140625,-84.9462890625,-83.4326171875,-83.8232421875,-83.5791015625,-82.9931640625,-82.7001953125,-82.3095703125,-82.7978515625,-82.5048828125,-83.4326171875,-84.0185546875,-84.2626953125,-85.3369140625,-85.4345703125,-87.2900390625,-87.2900390625,-88.5107421875,-89.3896484375,-90.2197265625,-90.7568359375,-91.8310546875,-93.1494140625,-93.8818359375,-94.3212890625,-96.0791015625,-97.2509765625,-97.4462890625,-98.5693359375,-100.3759765625,-99.9365234375,-98.1787109375,-98.5205078125,-98.0810546875,-97.4951171875,-97.9833984375,-97.4951171875,-97.0068359375,-98.0810546875,-98.5205078125,-97.6904296875,-97.4462890625,-98.0810546875,-99.1552734375,-99.0087890625,-99.8388671875,-99.9853515625,-101.2060546875,-101.6455078125,-102.5732421875,-102.5732421875,-103.5498046875,-104.5751953125,-104.6728515625,-106.0400390625,-107.0166015625,-107.7001953125,-107.9443359375,-107.3095703125,-106.4794921875,-105.4541015625,-105.2587890625,-104.8193359375,-104.1357421875,-103.9892578125,-103.2568359375,-103.0126953125,-103.5986328125,-102.6708984375,-103.2568359375,-103.4521484375,-103.4521484375,-104.1845703125,-104.2333984375,-104.1845703125,-104.7705078125,-105.0146484375,-105.3564453125,-105.5029296875,-106.3818359375,-106.9189453125,-107.1630859375,-108.3349609375,-107.9931640625,-109.7021484375,-110.0439453125,-110.5322265625,-109.5556640625,-108.1884765625,-107.7490234375,-107.5537109375,-107.1630859375,-105.8447265625,-105.4052734375,-104.8193359375,-104.8681640625,-104.6728515625,-103.5986328125,-104.0380859375,-103.7939453125,-103.7451171875,-103.7939453125,-103.9892578125,-104.0869140625,-103.9892578125,-104.2333984375,-104.2333984375,-105.6005859375,-105.5517578125,-106.0400390625,-106.2841796875,-106.9677734375,-108.0419921875,-108.7255859375,-109.2138671875,-109.3115234375,-109.0673828125,-107.4560546875,-106.9677734375,-107.1142578125,-105.9423828125,-104.9658203125,-105.2099609375,-103.9404296875,-103.6474609375,-103.2568359375,-102.7685546875,-102.7197265625,-102.4755859375,-102.7197265625,-102.1337890625,-101.7919921875,-101.8896484375,-102.5244140625,-102.8173828125,-102.7685546875,-103.5498046875,-103.4521484375,-104.1845703125,-103.7939453125,-103.7451171875,-104.9658203125,-105.1123046875,-104.8193359375,-105.0146484375,-104.4287109375,-103.2080078125,-101.7919921875,-101.1083984375,-99.6435546875,-98.9599609375,-98.2275390625,-97.5927734375,-96.4208984375,-95.6396484375,-95.1025390625,-94.6142578125,-93.4423828125,-93.7353515625,-93.7353515625,-92.7099609375,-92.8076171875,-92.7587890625,-93.0517578125,-92.1728515625,-92.5634765625,-92.4169921875,-93.1494140625,-93.7353515625,-93.1982421875,-94.4189453125,-93.9794921875,-94.6630859375,-92.3193359375,-91.0009765625,-90.1220703125,-88.9990234375,-87.5830078125,-85.0927734375,-83.9697265625,-82.5048828125,-81.4306640625,-80.7470703125,-80.0634765625,-78.7939453125,-77.9150390625,-77.6220703125,-76.7919921875,-76.8408203125,-76.5966796875,-75.6201171875,-75.9619140625,-75.9619140625,-75.4248046875,-75.5224609375,-76.1572265625,-75.1318359375,-76.4013671875,-76.3525390625,-75.9130859375,-77.1826171875,-77.7197265625,-78.0126953125,-76.0595703125,-73.7158203125,-71.8603515625,-71.5673828125,-69.6630859375,-68.1005859375,-66.2451171875,-65.4150390625,-65.4150390625,-64.1455078125,-64.3896484375,-64.3896484375,-63.1689453125,-64.2919921875,-64.5849609375,-65.6103515625,-65.7568359375,-66.9775390625,-67.2216796875,-68.1005859375,-69.2724609375,-69.5654296875,-71.1767578125,-71.5673828125,-72.4462890625,-73.4716796875,-74.2041015625,-75.0341796875,-76.6943359375,-77.8662109375,-77.7197265625,-76.1572265625,-74.4970703125,-73.6669921875,-73.7646484375,-73.6181640625,-73.9111328125,-73.2275390625,-73.3740234375,-74.2529296875,-74.7412109375,-74.4482421875,-74.9853515625,-75.9130859375,-75.9130859375,-77.4755859375,-77.9638671875,-79.3798828125,-80.3564453125,-81.3330078125,-81.9677734375,-82.6025390625,-83.2373046875,-83.8720703125,-84.2626953125,-85.4833984375,-86.6552734375,-87.1923828125,-88.3154296875,-86.8505859375,-85.9716796875,-85.2392578125,-84.7509765625,-84.6044921875,-84.1650390625,-83.4814453125,-83.7744140625,-84.3115234375,-84.4091796875,-83.7255859375,-84.6533203125,-84.3603515625,-84.8974609375,-85.2392578125,-85.9228515625,-86.1669921875,-86.9482421875,-88.1689453125,-87.8759765625,-89.5361328125,-89.5361328125,-90.5615234375,-90.8056640625,-92.3681640625,-92.8564453125,-93.8330078125,-93.1494140625,-92.3193359375,-91.7822265625,-90.7568359375,-90.5615234375,-88.8525390625,-88.6572265625,-88.3154296875,-87.5830078125,-87.3388671875,-87.6806640625,-87.4853515625,-87.2412109375,-87.1435546875,-87.4853515625,-87.0458984375,-87.5830078125,-87.6806640625,-88.4130859375,-88.9501953125,-88.7548828125,-89.5849609375,-89.6337890625,-90.6591796875,-91.0986328125,-91.5869140625,-92.6611328125,-93.1494140625,-93.9306640625,-94.7119140625,-92.8076171875,-92.5146484375,-92.1240234375,-91.3427734375,-90.0244140625,-89.7314453125,-89.0478515625,-88.7548828125,-88.6083984375,-87.7783203125,-88.4619140625,-88.1201171875,-87.8271484375,-88.6572265625,-88.3154296875,-88.4130859375,-89.9267578125,-89.8291015625,-90.1220703125,-90.3662109375,-91.0986328125,-91.5380859375,-91.8310546875,-93.0517578125,-93.2958984375,-93.7353515625,-94.9560546875,-94.9560546875,-95.7373046875,-96.7138671875,-95.6884765625,-94.4189453125,-94.0283203125,-94.5654296875,-92.3681640625,-92.1240234375,-91.4892578125,-90.8056640625,-91.2451171875,-91.5380859375,-90.3662109375,-90.6591796875,-91.1962890625,-90.0244140625,-90.2197265625,-90.7080078125,-90.1708984375,-90.8056640625,-90.5126953125,-90.2197265625,-91.0009765625,-91.4404296875,-91.1474609375,-91.5869140625,-91.6845703125,-92.6123046875,-92.7587890625,-92.6123046875,-91.3427734375,-89.6826171875,-89.3408203125,-87.6806640625,-86.8994140625,-86.1181640625,-85.0927734375,-84.1162109375,-84.1650390625,-83.9208984375,-83.3349609375,-82.7001953125,-83.1396484375,-83.7255859375,-82.7001953125,-82.7978515625,-83.2373046875,-83.0419921875,-83.4326171875,-84.1650390625,-84.1162109375,-84.7998046875,-85.1416015625,-85.5322265625,-85.1904296875,-86.5576171875,-86.4111328125,-87.4853515625,-86.2646484375,-84.7021484375,-82.9443359375,-81.5771484375,-80.3564453125,-78.5986328125,-77.8173828125,-76.6943359375,-75.6689453125,-74.2041015625,-74.0576171875,-73.6181640625,-73.2763671875,-72.5927734375,-72.0068359375,-72.3486328125,-71.6650390625,-72.0068359375,-72.2021484375,-72.0556640625,-72.1533203125,-72.0556640625,-72.2998046875,-72.7880859375,-73.1787109375,-73.2275390625,-74.3505859375,-74.2041015625,-74.6435546875,-75.9130859375,-75.9130859375,-74.6923828125,-72.7392578125,-71.6650390625,-70.6396484375,-69.5166015625,-67.8564453125,-66.1962890625,-65.4150390625,-64.7802734375,-64.3896484375,-64.6337890625,-64.0478515625,-64.6337890625,-64.2919921875,-64.8779296875,-65.7080078125,-65.7568359375,-65.6103515625,-66.4404296875,-67.3193359375,-67.2705078125,-68.4423828125,-69.3212890625,-69.5166015625,-70.6884765625,-71.2744140625,-72.0068359375,-72.7392578125,-73.8134765625,-74.9365234375,-75.8154296875,-75.9619140625,-74.4970703125,-73.6181640625,-72.5439453125,-71.5185546875,-71.6650390625,-71.1279296875,-71.0791015625,-70.7373046875,-71.7626953125,-71.7138671875,-71.6162109375,-72.0556640625,-72.6416015625,-73.9599609375,-74.5458984375,-75.0341796875,-75.7177734375,-76.3037109375,-77.5244140625,-78.4033203125,-78.6474609375,-79.9658203125,-81.0400390625,-82.0654296875,-82.2607421875,-83.4326171875,-84.9462890625,-84.6533203125,-83.8720703125,-82.9443359375,-82.8466796875,-82.2119140625,-82.2607421875,-81.9677734375,-81.8701171875,-82.1630859375,-82.6025390625,-83.2861328125,-83.2373046875,-83.0908203125,-83.1396484375,-83.7744140625,-83.8720703125,-84.8486328125,-86.1669921875,-86.7041015625,-87.6806640625,-88.6572265625,-89.4873046875,-88.9501953125,-90.6103515625,-91.5869140625,-92.5634765625,-93.7841796875,-94.3212890625,-95.5908203125,-95.0537109375,-94.4677734375,-94.3212890625,-94.5654296875,-93.5400390625,-93.1005859375,-93.0029296875,-92.5634765625,-92.9052734375,-92.2705078125,-91.7822265625,-92.8076171875,-91.9287109375,-92.4169921875,-92.3193359375,-92.9052734375,-93.3447265625,-93.8818359375,-94.2236328125,-94.3701171875,-95.2001953125,-95.5908203125,-96.2744140625,-96.9091796875,-98.1787109375,-98.8134765625,-98.9599609375,-100.7177734375,-101.9873046875,-102.8662109375,-103.1103515625,-103.8427734375,-103.2568359375,-102.5732421875,-103.1591796875,-102.5244140625,-102.7197265625,-102.1826171875,-102.2802734375,-102.1337890625,-102.6708984375,-102.7197265625,-102.7197265625,-103.4521484375,-102.9150390625,-103.4033203125,-104.1357421875,-104.5751953125,-104.3310546875,-105.4541015625,-105.4541015625,-105.9423828125,-106.2841796875,-107.2607421875,-108.0908203125,-107.9931640625,-108.5791015625,-109.3115234375,-109.8974609375,-110.9228515625,-111.4111328125,-111.1669921875,-110.6787109375,-110.0927734375,-109.4091796875,-109.2138671875,-107.9443359375,-107.7001953125,-107.4560546875,-107.4560546875,-107.8466796875,-107.3095703125,-106.7236328125,-106.0888671875,-106.7724609375,-105.9912109375,-106.1376953125,-106.5771484375,-107.1142578125,-106.4794921875,-106.8701171875,-106.7724609375,-107.4560546875,-107.3583984375,-107.4560546875,-107.4072265625,-108.3349609375,-107.9443359375,-108.3349609375,-106.8212890625,-105.1123046875,-104.7705078125,-103.6962890625,-102.7685546875,-101.9873046875,-100.6201171875,-99.3017578125,-99.3505859375,-98.4228515625,-97.3486328125,-96.4208984375,-96.1767578125,-95.3955078125,-94.4677734375,-94.8095703125,-94.2724609375,-94.5166015625,-93.9794921875,-94.0283203125,-93.0517578125,-93.8330078125,-93.6376953125,-94.3701171875,-93.2958984375,-93.9306640625,-94.6142578125,-94.6630859375,-95.0537109375,-93.4912109375,-92.0263671875,-90.6591796875,-88.7548828125,-87.4853515625,-85.3857421875,-83.0908203125,-81.3818359375,-79.9658203125,-78.5009765625,-77.1337890625,-76.9873046875,-76.0595703125,-74.9853515625,-75.0830078125,-74.6435546875,-74.2041015625,-73.9599609375,-73.8134765625,-73.9599609375,-73.1787109375,-73.9111328125,-73.8134765625,-73.7646484375,-74.5458984375,-74.3017578125,-75.1318359375,-75.1806640625,-75.9130859375,-76.4501953125,-76.9873046875,-76.3525390625,-74.4970703125,-71.9091796875,-70.9326171875,-70.2001953125,-68.6376953125,-67.1728515625,-65.7080078125,-65.2685546875,-65.1708984375,-63.5595703125,-63.2177734375,-64.1455078125,-63.4130859375,-63.7548828125,-63.7548828125,-64.0478515625,-64.2919921875,-64.7314453125,-64.8779296875,-65.6103515625,-66.0498046875,-65.9033203125,-66.6357421875,-67.6123046875,-68.2470703125,-69.2724609375,-69.8583984375,-69.2236328125,-68.1494140625,-65.9521484375,-65.5126953125,-64.4873046875,-63.9990234375,-62.9736328125,-62.5341796875,-63.5107421875,-63.4619140625,-63.6572265625,-63.5595703125,-63.4130859375,-64.4873046875,-65.1220703125,-65.8056640625,-66.8798828125,-67.3681640625,-68.1982421875,-68.7841796875,-69.7119140625,-70.6884765625,-71.4697265625,-72.3974609375,-73.4228515625,-74.2529296875,-75.6201171875,-76.5966796875,-77.1337890625,-76.3037109375,-75.1806640625,-74.8876953125,-73.7646484375,-73.5205078125,-73.4228515625,-72.2021484375,-72.7880859375,-73.0322265625,-73.2275390625,-72.7880859375,-73.0322265625,-73.2275390625,-73.4228515625,-74.3994140625,-74.6435546875,-75.7177734375,-76.0107421875,-76.9384765625,-77.8173828125,-78.7451171875,-79.3798828125,-79.5263671875,-80.7958984375,-81.5283203125,-82.5537109375,-83.3837890625,-84.7998046875,-86.5087890625,-86.4111328125,-88.1201171875,-86.7529296875,-85.6298828125,-86.0693359375,-86.2646484375,-85.7275390625,-85.3857421875,-85.6787109375,-84.6533203125,-86.1669921875,-85.0927734375,-85.4345703125,-86.1181640625,-86.4599609375,-87.2412109375,-87.3388671875,-87.5830078125,-88.8037109375,-89.0966796875,-89.9267578125,-90.4638671875,-91.2451171875,-92.5146484375,-92.6611328125,-93.2470703125,-93.9794921875,-95.2978515625,-95.9814453125,-96.5185546875,-97.5439453125,-98.6181640625,-99.8388671875,-99.2529296875,-99.1552734375,-98.4716796875,-98.4228515625,-98.0810546875,-98.7158203125,-97.4462890625,-97.5439453125,-97.5439453125,-98.0322265625,-97.5439453125,-97.6416015625,-97.6904296875,-97.6416015625,-98.6181640625,-98.9111328125,-98.7158203125,-99.5458984375,-99.7412109375,-100.4736328125,-100.2783203125,-101.0107421875,-101.3037109375,-102.4267578125,-102.6708984375,-102.4267578125,-103.2568359375,-104.0869140625,-104.6240234375,-104.9169921875,-103.8427734375,-103.5498046875,-103.6474609375,-103.0615234375,-101.8896484375,-101.4990234375,-101.1083984375,-101.4990234375,-101.2060546875,-100.7177734375,-100.7666015625,-100.4736328125,-100.0830078125,-100.8642578125,-101.0595703125,-101.2060546875,-100.8642578125,-101.3037109375,-101.7431640625,-102.6708984375,-102.2802734375,-102.6220703125,-103.5498046875,-104.3798828125,-103.7939453125,-105.2587890625,-105.3076171875,-106.5771484375,-106.9677734375,-108.2861328125,-108.2373046875,-107.0166015625,-106.5771484375,-106.7236328125,-105.5517578125,-105.6005859375,-105.3564453125,-103.9892578125,-104.1845703125,-104.1845703125,-103.8427734375,-103.6962890625,-103.5498046875,-103.5498046875,-104.2822265625,-103.9892578125,-103.4521484375,-104.3310546875,-104.2822265625,-104.9169921875,-104.7216796875,-105.7470703125,-105.6005859375,-105.9423828125,-106.1376953125,-107.0654296875,-107.0654296875,-107.4072265625,-108.2861328125,-109.3115234375,-109.4580078125,-110.0927734375,-108.9697265625,-107.7490234375,-106.7236328125,-106.3330078125,-105.9423828125,-104.2822265625,-104.0869140625,-103.2080078125,-102.3779296875,-102.4755859375,-101.3525390625,-100.6689453125,-100.2294921875,-99.7900390625,-99.3017578125,-98.8623046875,-98.3740234375,-98.6181640625,-98.4716796875,-98.2275390625,-98.2275390625,-98.3740234375,-97.5439453125,-97.9833984375,-97.3974609375,-97.8857421875,-98.0322265625,-98.8134765625,-97.0556640625,-95.4443359375,-93.1982421875,-90.8544921875,-89.7314453125,-88.4130859375,-86.9970703125,-84.6533203125,-83.4326171875,-82.3583984375,-81.6748046875,-80.5029296875,-80.1611328125,-78.9404296875,-78.6962890625,-78.8916015625,-78.2080078125,-79.0380859375,-78.5009765625,-78.3544921875,-78.2568359375,-79.8681640625,-79.3798828125,-80.6982421875,-80.6494140625,-80.8447265625,-82.0654296875,-82.2607421875,-83.0419921875,-82.7001953125,-82.5537109375,-80.9912109375,-78.2568359375,-76.6943359375,-75.4248046875,-74.2529296875,-72.2998046875,-70.5419921875,-69.2724609375,-69.5166015625,-69.2236328125,-68.1494140625,-68.1005859375,-68.5400390625,-68.4423828125,-68.5400390625,-69.5654296875,-70.3955078125,-70.8837890625,-71.6650390625,-72.9833984375,-74.1552734375,-74.9365234375,-75.7666015625,-77.2314453125,-78.2568359375,-79.4775390625,-80.0634765625,-81.8212890625,-82.9931640625,-83.9697265625,-83.2861328125,-82.0654296875,-80.5029296875,-79.6728515625,-78.8916015625,-79.1357421875,-77.9638671875,-77.5732421875,-77.5732421875,-77.6708984375,-77.4267578125,-77.0849609375,-77.8173828125,-78.3544921875,-79.2822265625,-79.2822265625,-79.9169921875,-80.5029296875,-81.8212890625,-82.4072265625,-83.1884765625,-83.5302734375,-84.7021484375,-85.1904296875,-86.3134765625,-86.8505859375,-87.7783203125,-88.5107421875,-87.8759765625,-86.6064453125,-85.6298828125,-84.4580078125,-83.9208984375,-83.4326171875,-82.9931640625,-82.5537109375,-82.8955078125,-82.9443359375,-82.8955078125,-82.8955078125,-82.6025390625,-83.2373046875,-83.5302734375,-83.8720703125,-83.7255859375,-84.7998046875,-85.8251953125,-86.1181640625,-86.6552734375,-87.3876953125,-88.1201171875,-88.2177734375,-89.2431640625,-89.4873046875,-90.6103515625,-90.3173828125,-89.2919921875,-88.5107421875,-88.0224609375,-87.3876953125,-86.0205078125,-84.7509765625,-84.3603515625,-83.8232421875,-83.4326171875,-83.1884765625,-83.1396484375,-83.0419921875,-82.4560546875,-82.8466796875,-82.7490234375,-83.5302734375,-83.6767578125,-84.0185546875,-84.1162109375,-84.3115234375,-85.4833984375,-85.8740234375,-86.3623046875,-87.3388671875,-88.4619140625,-88.7060546875,-89.9267578125,-89.5361328125,-88.9013671875,-88.5107421875,-88.2177734375,-87.4853515625,-86.6552734375,-85.4833984375,-84.8974609375,-84.3115234375,-84.3603515625,-84.1162109375,-83.7255859375,-83.2373046875,-83.9697265625,-83.4326171875,-83.3837890625,-83.4814453125,-84.5068359375,-85.1904296875,-84.7021484375,-85.2880859375,-85.2880859375,-86.4111328125,-86.8505859375,-87.0458984375,-88.6083984375,-88.3154296875,-88.9990234375,-88.6572265625,-87.2412109375,-86.7529296875,-86.9482421875,-85.6787109375,-84.7998046875,-84.4580078125,-83.8232421875,-83.7744140625,-83.8232421875,-82.9443359375,-82.1630859375,-82.6513671875,-82.6025390625,-81.7724609375,-82.4560546875,-82.5048828125,-82.7490234375,-83.0908203125,-83.0419921875,-83.2373046875,-83.3837890625,-84.1162109375,-84.8486328125,-84.2626953125,-85.0439453125,-84.5068359375,-83.6279296875,-83.1396484375,-81.5283203125,-80.9912109375,-80.3564453125,-78.6474609375,-78.0126953125,-77.5244140625,-76.7919921875,-76.5966796875,-76.1083984375,-75.2783203125,-75.4248046875,-75.2294921875,-75.4736328125,-75.7177734375,-75.6201171875,-75.1318359375,-75.7666015625,-75.5224609375,-76.7919921875,-76.5478515625,-76.5966796875,-77.4755859375,-77.8173828125,-79.3310546875,-78.2568359375,-78.2080078125,-76.8408203125,-76.4990234375,-75.7177734375,-74.0087890625,-72.3974609375,-71.2255859375,-70.1513671875,-69.1259765625,-68.4912109375,-67.9541015625,-67.1728515625,-66.5869140625,-66.6357421875,-66.1962890625,-66.0498046875,-65.9521484375,-66.1474609375,-66.9775390625,-66.9775390625,-66.5869140625,-66.6357421875,-67.7099609375,-68.3447265625,-69.2724609375,-69.2724609375,-69.6142578125,-71.1279296875,-71.4697265625,-72.6904296875,-73.4716796875,-72.5927734375,-71.1279296875,-70.1513671875,-69.7607421875,-68.6865234375,-67.4169921875,-67.0263671875,-65.6591796875,-65.7080078125,-65.7080078125,-65.4638671875,-65.7080078125,-65.5126953125,-65.9521484375,-65.7080078125,-67.4169921875,-67.4169921875,-68.5400390625,-69.1748046875,-69.3701171875,-70.1025390625,-71.0791015625,-71.5673828125,-72.5927734375,-73.2275390625,-74.8388671875,-75.0341796875,-76.4013671875,-75.9130859375,-74.3505859375,-73.5205078125,-72.8857421875,-72.1533203125,-71.3720703125,-70.9814453125,-70.5419921875,-70.5419921875,-71.2744140625,-71.2744140625,-70.9814453125,-70.7373046875,-71.4697265625,-72.5927734375,-73.4716796875,-74.3505859375,-75.2783203125,-76.1083984375,-76.0107421875,-77.6220703125,-78.5009765625,-79.5263671875,-79.4287109375,-80.8935546875,-81.3330078125,-82.2119140625,-83.6279296875,-82.4072265625,-80.9423828125,-80.4541015625,-79.9169921875,-78.6962890625,-78.4033203125,-77.5732421875,-77.3779296875,-77.9638671875,-78.2080078125,-77.9638671875,-78.1103515625,-78.5986328125,-79.2333984375,-79.9658203125,-79.7705078125,-81.1376953125,-81.4306640625,-82.2119140625,-83.0908203125,-84.2626953125,-84.9951171875,-85.6787109375,-86.7529296875,-87.6318359375,-88.3154296875,-89.3408203125,-90.0244140625,-91.6357421875,-91.3427734375,-90.4150390625,-89.2431640625,-88.6083984375,-88.7548828125,-88.2666015625,-87.4853515625,-86.9482421875,-86.6064453125,-87.0947265625,-87.4365234375,-87.9248046875,-88.8037109375,-88.6572265625,-90.0732421875,-89.6826171875,-91.1474609375,-91.1474609375,-91.5380859375,-92.3681640625,-92.4658203125,-93.0517578125,-93.9794921875,-95.1025390625,-95.2490234375,-96.0791015625,-97.3974609375,-97.9833984375,-98.7158203125,-99.9365234375,-100.9130859375,-101.0595703125,-100.7177734375,-99.9365234375,-100.7177734375,-99.5947265625,-99.5458984375,-99.4482421875,-98.9111328125,-99.0087890625,-99.5947265625,-99.6435546875,-99.7900390625,-99.6435546875,-99.3994140625,-99.7900390625,-100.2783203125,-100.4736328125,-101.4013671875,-101.3037109375,-101.2548828125,-101.5966796875,-102.9638671875,-102.9150390625,-103.1591796875,-103.4521484375,-103.7939453125,-104.9658203125,-105.6494140625,-105.1611328125,-104.3310546875,-103.5986328125,-103.5498046875,-102.7685546875,-103.0615234375,-101.7919921875,-102.2802734375,-101.8896484375,-101.8896484375,-101.5478515625,-101.2548828125,-100.7666015625,-100.9619140625,-101.0107421875,-101.6943359375,-101.4013671875,-101.3037109375,-101.6455078125,-102.3779296875,-102.3291015625,-102.2802734375,-102.9638671875,-103.5986328125,-103.4521484375,-104.9169921875,-105.1123046875,-105.5029296875,-105.9912109375,-105.5517578125,-104.6728515625,-104.6728515625,-104.1357421875,-103.7939453125,-102.0849609375,-102.0849609375,-101.1083984375,-100.6689453125,-99.8388671875,-99.7900390625,-99.0087890625,-98.3740234375,-98.0322265625,-97.4951171875,-97.9345703125,-98.0810546875,-97.7880859375,-98.1787109375,-98.8134765625,-98.6181640625,-98.8623046875,-98.8134765625,-98.4716796875,-100.0341796875,-100.2783203125,-100.9130859375,-101.2060546875,-102.4267578125,-103.0615234375,-103.5009765625,-104.1845703125,-103.3056640625,-102.7685546875,-102.3291015625,-101.5966796875,-101.1083984375,-100.0341796875,-98.7158203125,-98.1787109375,-97.9833984375,-97.2021484375,-96.0302734375,-95.3955078125,-95.2490234375,-94.3701171875,-93.9306640625,-94.2236328125,-93.9794921875,-94.6630859375,-94.3212890625,-94.0771484375,-93.9306640625,-94.4677734375,-94.6142578125,-95.5419921875,-95.4443359375,-95.8349609375,-96.1279296875,-97.0556640625,-97.0556640625,-97.3974609375,-96.3232421875,-94.4189453125,-92.8564453125,-92.4658203125,-90.8056640625,-90.1708984375,-88.5595703125,-86.9482421875,-86.6552734375,-85.6298828125,-84.4580078125,-83.9697265625,-83.3349609375,-83.1396484375,-82.8955078125,-83.2373046875,-83.5302734375,-83.5302734375,-83.2373046875,-84.1650390625,-83.9208984375,-83.9697265625,-84.5068359375,-85.1904296875,-85.5322265625,-86.0205078125,-86.5576171875,-86.7041015625,-85.7763671875,-83.6279296875,-81.6748046875,-80.7958984375,-79.7216796875,-77.9150390625,-76.7919921875,-75.0341796875,-75.6201171875,-74.3017578125,-73.5205078125,-73.6669921875,-73.4716796875,-73.7158203125,-73.6669921875,-74.2529296875,-74.4482421875,-74.4970703125,-75.7666015625,-75.2783203125,-77.0849609375,-77.9638671875,-77.8662109375,-78.6962890625,-79.2333984375,-80.6982421875,-81.8212890625,-82.3095703125,-82.9443359375,-84.0673828125,-82.3095703125,-80.7470703125,-78.6474609375,-78.6474609375,-77.7197265625,-76.6943359375,-75.6201171875,-74.9853515625,-75.7177734375,-75.7666015625,-76.2548828125,-76.1572265625,-76.4501953125,-76.0595703125,-77.8662109375,-78.5498046875,-79.2333984375,-80.3076171875,-81.5283203125,-82.1142578125,-83.5791015625,-85.1904296875,-85.9228515625,-86.2646484375,-87.7294921875,-88.5107421875,-90.0732421875,-91.2939453125,-92.4169921875,-93.6865234375,-93.5888671875,-92.5146484375,-91.1962890625,-90.7568359375,-91.2451171875,-90.9521484375,-89.7314453125,-89.5361328125,-89.8291015625,-90.8056640625,-90.4638671875,-90.1220703125,-90.9033203125,-90.6591796875,-91.8798828125,-92.7587890625,-92.6611328125,-92.8076171875,-94.5654296875,-94.4189453125,-95.4443359375,-96.0302734375,-96.1767578125,-97.1533203125,-97.5927734375,-98.8134765625,-99.2529296875,-100.0830078125,-99.7900390625,-99.3017578125,-98.2275390625,-97.4462890625,-97.2021484375,-97.1044921875,-96.2744140625,-95.4931640625,-95.4443359375,-95.2978515625,-95.1025390625,-94.7607421875,-95.3955078125,-95.5908203125,-94.8583984375,-96.0791015625,-95.6396484375,-96.0302734375,-96.2744140625,-97.0556640625,-96.6650390625,-97.7392578125,-98.3251953125,-98.8134765625,-99.9365234375,-99.8388671875,-100.8642578125,-101.2060546875,-100.5712890625,-99.5458984375,-99.3994140625,-98.5205078125,-97.9345703125,-96.5673828125,-96.6162109375,-96.0302734375,-95.1513671875,-95.0537109375,-95.5908203125,-95.2490234375,-94.9072265625,-95.8349609375,-94.9560546875,-95.4443359375,-95.6884765625,-96.7626953125,-96.9091796875,-96.5673828125,-97.1533203125,-97.6416015625,-98.1787109375,-98.8134765625,-99.5458984375,-99.7900390625,-100.7177734375,-101.2060546875,-102.5732421875,-101.8408203125,-100.5712890625,-100.9130859375,-101.4501953125,-101.0595703125,-100.6201171875,-100.5224609375,-100.0341796875,-100.7177734375,-100.0830078125,-99.8876953125,-100.5224609375,-100.3271484375,-100.2294921875,-100.7666015625,-100.8642578125,-101.3037109375,-101.7919921875,-101.9384765625,-102.1337890625,-103.4033203125,-103.2568359375,-103.8916015625,-104.2822265625,-105.2099609375,-105.5029296875,-106.1376953125,-107.2119140625,-106.5283203125,-106.6748046875,-106.8212890625,-106.4306640625,-106.1376953125,-105.7470703125,-104.9658203125,-104.9658203125,-104.6240234375,-104.8193359375,-104.4287109375,-103.8916015625,-104.5263671875,-103.2568359375,-104.1845703125,-103.7939453125,-103.4033203125,-103.6474609375,-103.5009765625,-103.8916015625,-104.1845703125,-103.8916015625,-104.6240234375,-105.3564453125,-104.7216796875,-105.6494140625,-106.0400390625,-105.1611328125,-103.7451171875,-102.8662109375,-102.2314453125,-101.3525390625,-100.0341796875,-98.8134765625,-96.9091796875,-96.8115234375,-95.9326171875,-94.9560546875,-93.7841796875,-93.6376953125,-93.1005859375,-92.9052734375,-92.4658203125,-92.8076171875,-92.2216796875,-91.9775390625,-92.4169921875,-92.5146484375,-92.2216796875,-92.8076171875,-92.6611328125,-92.6611328125,-92.7099609375,-93.3447265625,-93.0517578125,-94.0283203125,-93.1005859375,-91.2451171875,-89.7314453125,-87.9736328125,-86.3623046875,-84.3603515625,-82.4072265625,-80.4541015625,-79.3798828125,-78.7451171875,-77.4267578125,-75.7666015625,-75.1806640625,-74.7412109375,-74.8876953125,-74.4970703125,-74.7412109375,-74.9853515625,-75.4736328125,-75.6689453125,-75.0341796875,-76.0595703125,-77.3291015625,-76.9873046875,-77.8173828125,-78.7939453125,-80.3076171875,-80.9912109375,-82.1630859375,-82.3583984375,-83.1396484375,-83.2861328125,-82.3095703125,-80.5517578125,-79.5263671875,-79.2822265625,-77.7685546875,-77.0849609375,-75.7177734375,-75.5224609375,-76.0107421875,-75.9619140625,-75.8642578125,-76.5966796875,-76.6455078125,-77.3291015625,-78.0615234375,-79.3310546875,-79.9658203125,-81.2353515625,-81.7236328125,-82.5048828125,-83.6279296875,-85.0439453125,-85.3369140625,-86.8994140625,-87.6806640625,-88.2177734375,-89.3408203125,-90.3173828125,-91.5380859375,-92.8564453125,-92.2705078125,-91.4892578125,-90.6103515625,-89.9755859375,-89.6337890625,-88.9501953125,-88.2666015625,-87.8271484375,-87.7294921875,-88.9013671875,-88.5107421875,-88.4619140625,-88.9013671875,-88.9013671875,-89.8779296875,-90.3173828125,-91.1474609375,-91.3916015625,-93.0517578125,-93.1005859375,-94.4677734375,-94.9560546875,-96.6650390625,-96.7138671875,-97.1044921875,-98.3740234375,-99.3017578125,-100.6201171875,-101.9384765625,-102.1826171875,-99.7412109375,-99.4482421875,-99.2529296875,-98.8623046875,-98.4716796875,-98.0810546875,-97.4462890625,-97.1044921875,-97.8369140625,-97.8857421875,-98.1298828125,-97.6904296875,-97.9833984375,-98.9111328125,-99.1552734375,-100.3271484375,-101.0107421875,-100.8642578125,-101.5966796875,-101.9873046875,-102.4267578125,-103.4521484375,-104.9169921875,-104.7216796875,-106.0888671875,-106.3330078125,-107.3583984375,-108.3349609375,-109.3115234375,-109.7021484375,-108.7744140625,-109.0185546875,-108.4814453125,-108.2373046875,-107.9931640625,-108.1396484375,-107.3095703125,-107.5537109375,-108.0908203125,-108.4814453125,-108.4814453125,-108.9208984375,-109.7021484375,-110.1904296875,-111.3134765625,-111.6552734375,-111.8505859375,-112.8271484375,-113.3154296875,-113.9990234375,-113.9013671875,-115.2685546875,-115.8544921875,-117.0751953125,-117.5634765625,-118.2958984375,-119.5654296875,-120.4443359375,-121.2255859375,-121.2744140625,-122.1533203125,-121.6162109375,-120.8837890625,-121.5185546875,-121.0302734375,-121.3232421875,-120.5419921875,-121.1279296875,-120.7861328125,-120.6396484375,-120.6884765625,-120.8349609375,-120.9326171875,-121.5185546875,-121.3720703125,-121.9091796875,-121.1279296875,-121.1279296875,-122.0068359375,-122.2509765625,-122.8369140625,-122.7880859375,-123.3740234375,-124.0576171875,-123.9599609375,-124.8876953125,-125.4736328125,-125.0341796875,-125.5224609375,-124.6435546875,-124.2529296875,-123.5693359375,-123.6669921875,-123.3251953125,-122.4462890625,-121.8603515625,-122.0068359375,-121.3232421875,-121.4697265625,-120.9326171875,-120.7373046875,-120.6884765625,-121.6162109375,-120.8349609375,-120.9814453125,-120.3955078125,-121.5185546875,-121.1767578125,-121.6650390625,-121.4697265625,-122.4462890625,-122.5439453125,-123.1787109375,-123.4228515625,-124.8388671875,-124.7412109375,-124.6923828125,-124.4970703125,-123.3740234375,-122.5439453125,-122.5927734375,-121.2744140625,-120.2978515625,-118.5400390625,-117.3681640625,-117.1240234375,-116.4404296875,-115.8056640625,-115.3662109375,-114.4873046875,-113.6572265625,-113.4619140625,-112.8271484375,-112.8759765625,-112.6806640625,-112.4853515625,-112.4853515625,-112.1435546875,-113.2177734375,-112.9248046875,-113.4619140625,-114.1943359375,-114.3408203125,-114.7314453125,-115.2685546875,-115.7080078125,-116.0986328125,-115.2685546875,-113.5595703125,-112.2900390625,-111.5087890625,-109.7509765625,-108.4326171875,-105.9912109375,-105.2099609375,-104.1845703125,-102.4755859375,-101.2548828125,-99.9853515625,-99.5947265625,-99.2529296875,-98.1787109375,-97.3486328125,-97.3486328125,-96.8603515625,-96.4208984375,-96.4697265625,-96.6162109375,-96.9580078125,-96.6650390625,-96.8115234375,-96.9091796875,-97.4462890625,-97.2021484375,-97.6416015625,-95.5419921875,-93.3935546875,-91.9287109375,-89.9755859375,-88.3154296875,-86.8505859375,-84.9951171875,-83.9697265625,-83.7744140625,-83.1884765625,-81.8701171875,-81.1376953125,-80.9912109375,-80.5029296875,-80.6982421875,-80.8447265625,-81.7236328125,-81.7724609375,-82.9931640625,-82.9443359375,-83.7744140625,-84.1650390625,-84.5068359375,-84.9951171875,-85.2392578125,-86.0693359375,-85.4833984375,-83.6767578125,-82.0166015625,-80.4052734375,-79.1357421875,-78.1591796875,-76.9873046875,-76.2060546875,-75.4736328125,-75.7177734375,-75.9619140625,-75.4248046875,-75.5224609375,-76.3525390625,-76.2548828125,-76.9873046875,-77.9638671875,-79.2333984375,-80.1123046875,-80.8447265625,-80.7958984375,-82.3583984375,-83.1884765625,-84.2138671875,-84.8974609375,-85.4833984375,-86.7529296875,-87.7783203125,-88.5595703125,-87.2900390625,-86.4111328125,-84.8974609375,-84.7021484375,-84.2626953125,-83.7744140625,-83.1396484375,-83.2861328125,-82.7001953125,-83.4326171875,-83.4814453125,-83.9697265625,-83.8232421875,-85.1416015625,-85.7275390625,-86.3623046875,-87.3876953125,-88.3154296875,-88.7548828125,-90.0244140625,-91.1474609375,-92.1240234375,-92.8564453125,-94.0283203125,-95.0048828125,-96.0302734375,-97.3974609375,-98.3740234375,-99.1064453125,-100.2294921875,-99.1552734375,-98.7158203125,-98.3251953125,-98.1787109375,-97.8857421875,-97.0556640625,-97.3486328125,-96.8603515625,-97.6416015625,-97.7880859375,-97.8369140625,-97.6904296875,-98.3740234375,-98.4228515625,-99.2529296875,-99.3017578125,-99.9853515625,-100.6201171875,-100.7177734375,-101.8896484375,-101.5478515625,-102.1826171875,-102.7685546875,-103.3056640625,-104.5263671875,-104.3798828125,-105.4052734375,-105.1611328125,-103.6474609375,-103.1591796875,-102.8662109375,-102.5732421875,-101.6943359375,-100.9619140625,-101.6943359375,-101.8408203125,-102.0361328125,-101.2060546875,-101.5478515625,-101.6943359375,-101.0107421875,-101.7919921875,-101.6943359375,-102.1337890625,-102.5244140625,-102.6708984375,-103.1591796875,-103.0615234375,-103.8916015625,-104.6240234375,-104.6728515625,-105.9423828125,-106.1865234375,-106.7236328125,-107.4072265625,-107.5048828125,-106.5283203125,-105.8935546875,-105.5029296875,-105.2587890625,-104.8681640625,-104.2822265625,-103.4033203125,-103.2080078125,-102.7685546875,-103.3056640625,-102.4267578125,-103.1103515625,-102.8173828125,-103.6962890625,-102.8662109375,-103.5498046875,-103.5498046875,-103.8427734375,-104.0380859375,-104.1845703125,-104.5263671875,-105.3076171875,-106.0888671875,-106.0888671875,-107.3583984375,-108.8720703125,-109.1650390625,-110.5810546875,-110.3857421875,-109.8974609375,-109.4091796875,-109.3603515625,-109.4091796875,-109.7021484375,-108.2861328125,-109.0185546875,-108.8232421875,-108.3349609375,-108.2861328125,-108.2373046875,-108.3837890625,-108.3837890625,-108.7255859375,-108.8720703125,-109.4580078125,-109.1162109375,-109.6044921875,-109.8486328125,-110.4345703125,-110.5322265625,-111.3134765625,-111.1669921875,-112.3388671875,-112.7294921875,-113.0224609375,-114.0478515625,-112.2900390625,-111.8994140625,-111.0693359375,-110.3857421875,-109.6044921875,-109.0673828125,-107.3583984375,-107.5537109375,-106.7236328125,-105.6005859375,-105.2587890625,-104.3310546875,-103.8916015625,-103.9404296875,-102.7685546875,-102.7685546875,-102.9638671875,-103.2080078125,-102.1337890625,-102.6220703125,-101.2060546875,-101.8408203125,-101.4013671875,-101.7431640625,-102.3779296875,-101.6455078125,-100.4736328125,-98.6181640625,-96.9091796875,-95.7861328125,-94.0283203125,-91.7333984375,-90.4638671875,-88.1201171875,-87.4365234375,-86.0205078125,-84.7998046875,-84.7509765625,-83.4326171875,-82.7978515625,-82.0654296875,-81.9677734375,-81.7724609375,-82.1142578125,-82.1142578125,-81.7236328125,-81.9189453125,-83.2861328125,-83.0419921875,-82.7978515625,-83.1884765625,-83.6767578125,-84.8974609375,-85.4833984375,-84.2138671875,-82.2607421875,-81.2353515625,-79.4775390625,-77.9150390625,-76.5478515625,-74.8876953125,-74.1064453125,-73.9599609375,-74.1552734375,-73.8134765625,-73.9599609375,-74.3505859375,-75.5224609375,-76.2548828125,-76.8408203125,-78.3544921875,-79.1845703125,-80.5029296875,-81.6259765625,-82.4072265625,-83.8232421875,-84.9951171875,-85.9228515625,-86.7041015625,-89.0478515625,-89.6826171875,-90.7080078125,-90.9033203125,-88.8037109375,-88.1689453125,-88.6572265625,-88.2177734375,-87.3388671875,-87.4853515625,-86.9970703125,-87.6806640625,-88.2177734375,-88.6083984375,-89.3408203125,-90.3662109375,-91.0009765625,-92.1728515625,-92.8564453125,-94.3212890625,-95.8349609375,-97.0068359375,-97.9345703125,-99.2041015625,-99.4482421875,-100.1806640625,-101.4501953125,-103.1103515625,-103.9892578125,-105.0634765625,-104.8681640625,-103.7451171875,-102.7197265625,-103.1103515625,-102.2314453125,-101.3525390625,-101.1083984375,-101.0107421875,-101.5478515625,-101.6455078125,-101.9384765625,-102.5244140625,-102.3291015625,-103.5986328125,-104.6240234375,-104.5751953125,-105.3076171875,-107.0654296875,-107.7001953125,-107.8466796875,-109.1650390625,-109.8974609375,-110.5810546875,-111.7041015625,-112.3388671875,-113.5595703125,-113.4619140625,-112.9248046875,-113.0224609375,-113.2177734375,-112.6318359375,-111.8994140625,-111.8505859375,-111.3134765625,-110.7763671875,-111.1181640625,-111.8505859375,-111.6064453125,-111.7529296875,-111.8505859375,-112.3388671875,-112.7294921875,-112.7294921875,-112.5830078125,-113.5107421875,-114.3896484375,-114.8779296875,-114.7802734375,-116.8310546875,-116.6845703125,-118.0517578125,-117.9052734375,-119.6630859375,-120.0048828125,-121.2255859375,-120.9326171875,-121.0791015625,-120.7861328125,-121.2744140625,-120.7373046875,-120.6396484375,-120.5419921875,-120.0048828125,-120.5908203125,-120.5419921875,-120.6396484375,-121.4208984375,-120.4443359375,-120.9814453125,-121.1767578125,-121.1279296875,-122.3486328125,-122.9833984375,-122.8857421875,-123.4228515625,-124.2529296875,-124.2529296875,-125.0341796875,-125.7666015625,-126.5478515625,-126.4501953125,-127.4755859375,-127.6708984375,-128.5986328125,-129.1845703125,-130.1123046875,-130.5029296875,-129.8681640625,-129.5751953125,-130.1611328125,-129.6728515625,-129.2822265625,-129.1357421875,-128.3056640625,-128.2568359375,-128.5986328125,-128.5498046875,-127.9150390625,-127.1826171875,-127.7685546875,-128.5009765625,-128.2080078125,-128.0126953125,-128.5009765625,-128.6474609375,-129.1845703125,-129.2333984375,-129.7216796875,-129.2333984375,-129.4287109375,-130.1611328125,-130.6982421875,-131.5771484375,-131.4794921875,-131.9189453125,-131.8212890625,-131.5283203125,-130.5517578125,-130.3564453125,-129.3310546875,-129.0869140625,-127.9638671875,-127.6220703125,-127.6220703125,-126.4990234375,-126.1572265625,-125.7666015625,-125.6689453125,-125.0830078125,-125.3271484375,-124.8388671875,-125.1318359375,-125.7666015625,-124.7900390625,-125.0341796875,-125.3759765625,-124.7412109375,-125.4736328125,-125.8642578125,-126.2548828125,-125.9130859375,-126.2060546875,-127.3291015625,-127.4267578125,-128.1103515625,-128.2080078125,-129.0380859375,-127.3779296875,-127.0849609375,-125.9130859375,-124.9853515625,-123.8134765625,-122.7880859375,-121.3232421875,-120.1513671875,-118.9794921875,-118.5400390625,-118.0029296875,-117.2216796875,-116.3427734375,-116.2939453125,-115.3662109375,-116.2939453125,-116.0986328125,-115.4638671875,-115.0244140625,-116.0498046875,-115.7080078125,-116.2451171875,-116.5380859375,-116.6845703125,-117.2705078125,-117.6123046875,-118.0029296875,-119.0283203125,-119.0771484375,-119.1748046875,-120.6396484375,-121.2255859375,-121.2255859375,-119.2724609375,-118.0517578125,-117.3193359375,-116.5869140625,-114.6337890625,-113.7060546875,-112.2900390625,-111.0693359375,-110.7275390625,-110.3369140625,-109.3603515625,-108.7255859375,-108.3349609375,-107.7490234375,-107.9443359375,-107.6513671875,-107.3583984375,-107.1630859375,-107.5537109375,-107.6513671875,-107.3095703125,-107.9443359375,-108.4326171875,-108.0908203125,-108.7744140625,-109.0673828125,-109.7509765625,-110.1416015625,-110.2880859375,-109.6533203125,-107.8955078125,-106.7236328125,-105.8447265625,-104.3798828125,-103.2568359375,-102.5244140625,-101.3525390625,-101.4013671875,-101.4990234375,-101.1083984375,-100.9130859375,-100.9619140625,-101.4990234375,-102.2802734375,-102.7685546875,-102.8662109375,-104.3310546875,-104.3798828125,-105.2099609375,-106.1865234375,-107.3095703125,-107.2119140625,-108.4814453125,-109.0185546875,-110.0439453125,-111.2646484375,-111.9970703125,-112.3388671875,-114.0966796875,-113.1689453125,-111.8505859375,-110.9716796875,-110.9228515625,-110.5810546875,-109.3603515625,-108.5302734375,-107.6025390625,-107.8955078125,-107.8955078125,-108.1396484375,-108.7255859375,-108.6279296875,-109.2626953125,-110.1904296875,-110.3857421875,-110.7763671875,-111.7529296875,-112.7294921875,-113.3642578125,-113.6572265625,-115.2197265625,-115.9521484375,-117.7099609375,-118.7841796875,-119.3701171875,-120.9814453125,-122.1044921875,-123.2275390625,-124.2041015625,-125.8642578125,-126.1572265625,-124.6923828125,-125.3271484375,-125.0341796875,-124.9365234375,-124.3505859375,-123.9599609375,-123.7158203125,-123.5205078125,-124.1064453125,-123.9111328125,-123.2763671875,-124.0087890625,-123.9111328125,-123.7646484375,-125.6201171875,-125.5224609375,-126.4013671875,-126.6943359375,-128.3056640625,-127.7685546875,-128.7451171875,-129.4775390625,-130.4052734375,-130.6494140625,-131.4306640625,-131.7236328125,-132.0166015625,-133.5791015625,-134.7509765625,-133.9697265625,-133.1884765625,-132.7978515625,-132.4072265625,-132.1630859375,-131.9677734375,-131.5283203125,-131.1376953125,-131.3330078125,-131.2841796875,-130.8935546875,-130.6494140625,-131.1376953125,-131.3818359375,-131.3330078125,-131.2353515625,-132.4072265625,-131.9677734375,-133.0908203125,-133.4814453125,-133.2861328125,-133.6767578125,-133.7744140625,-134.6533203125,-135.3857421875,-136.3134765625,-136.6064453125,-136.6064453125,-136.0693359375,-134.9462890625,-134.2138671875,-134.3603515625,-133.0419921875,-133.2861328125,-132.2119140625,-131.2353515625,-130.5029296875,-130.7958984375,-130.1123046875,-130.0634765625,-129.3798828125,-129.7705078125,-129.8193359375,-130.4052734375,-129.6240234375,-129.8681640625,-130.2587890625,-129.7216796875,-130.8447265625,-130.4541015625,-130.7958984375,-130.8935546875,-132.0654296875,-132.0166015625,-131.9189453125,-132.9931640625,-132.7978515625,-131.6259765625,-130.8935546875,-130.5517578125,-129.0380859375,-128.8427734375,-127.8173828125,-126.6455078125,-125.7177734375,-125.5224609375,-124.5947265625,-123.9599609375,-123.8134765625,-123.0810546875,-123.3740234375,-123.3251953125,-122.2998046875,-122.6416015625,-122.6904296875,-123.4716796875,-123.0322265625,-123.4228515625,-123.9111328125,-124.5947265625,-125.0341796875,-124.8876953125,-125.5224609375,-126.4990234375,-126.9873046875,-127.8173828125,-128.7939453125,-127.7685546875,-127.2314453125,-125.8154296875,-125.9619140625,-125.1806640625,-124.2529296875,-123.5693359375,-122.5439453125,-122.6416015625,-122.5439453125,-121.9580078125,-121.2744140625,-121.0791015625,-120.9326171875,-120.8837890625,-120.5908203125,-121.2255859375,-120.7861328125,-121.3720703125,-121.4697265625,-121.2255859375,-121.2255859375,-122.6416015625,-122.1533203125,-122.3974609375,-122.5439453125,-122.7392578125,-123.5693359375,-123.4228515625,-122.6416015625,-121.3720703125,-120.2001953125,-120.1025390625,-118.3447265625,-117.3193359375,-115.8056640625,-115.7080078125,-114.9755859375,-114.8291015625,-113.4130859375,-112.6318359375,-112.2900390625,-112.0458984375,-111.1181640625,-111.5576171875,-111.8017578125,-111.6552734375,-111.5087890625,-111.4599609375,-110.9228515625,-112.5830078125,-112.5341796875,-112.0947265625,-113.7060546875,-113.5107421875,-114.6337890625,-114.4384765625,-112.9736328125,-111.3134765625,-110.1904296875,-109.0185546875,-107.2607421875,-105.9912109375,-104.1357421875,-103.5009765625,-102.6708984375,-102.9638671875,-102.4267578125,-101.4990234375,-100.8154296875,-100.9130859375,-101.0107421875,-100.7177734375,-101.4501953125,-101.4013671875,-101.1572265625,-101.4990234375,-101.9384765625,-102.9638671875,-103.2080078125,-102.9638671875,-103.3544921875,-104.9169921875,-105.5029296875,-106.3330078125,-107.0166015625,-106.4794921875,-104.4775390625,-103.5009765625,-102.6220703125,-101.5966796875,-101.1083984375,-99.6435546875,-98.3740234375,-97.7880859375,-98.0810546875,-97.7880859375,-97.2509765625,-97.3486328125,-97.6416015625,-98.3740234375,-98.4716796875,-98.7158203125,-99.0087890625,-100.3759765625,-101.2548828125,-102.2314453125,-102.5244140625,-104.4287109375,-104.5751953125,-105.8447265625,-107.0654296875,-107.8466796875,-108.2373046875,-110.1416015625,-110.9228515625,-111.6552734375,-111.0693359375,-110.3857421875,-110.8740234375,-109.7998046875,-109.0673828125,-108.3349609375,-107.9443359375,-108.4326171875,-108.0908203125,-108.2861328125,-108.2373046875,-108.4814453125,-109.1650390625,-109.1650390625,-109.4580078125,-110.1904296875,-110.6787109375,-111.2646484375,-111.8017578125,-111.9970703125,-112.8759765625,-114.0478515625,-113.8525390625,-114.6826171875,-115.7568359375,-116.5380859375,-116.5869140625,-117.8564453125,-118.0517578125,-118.3935546875,-116.3427734375,-116.3427734375,-115.3173828125,-115.2197265625,-114.5361328125,-113.2666015625,-113.1201171875,-113.0712890625,-112.3876953125,-112.3876953125,-112.7783203125,-112.7783203125,-112.0947265625,-112.2900390625,-112.8759765625,-113.0224609375,-113.1201171875,-114.0966796875,-114.4873046875,-114.4384765625,-115.0732421875,-115.3662109375,-116.7333984375,-117.4169921875,-117.6611328125,-118.1982421875,-118.9306640625,-118.9306640625,-117.9541015625,-117.2705078125,-116.1474609375,-116.2451171875,-115.4638671875,-114.9755859375,-113.8525390625,-113.7548828125,-112.8271484375,-111.9970703125,-111.7529296875,-111.8505859375,-111.1181640625,-110.9716796875,-111.2158203125,-111.5087890625,-111.7529296875,-111.8017578125,-111.9970703125,-112.4365234375,-112.2900390625,-112.6318359375,-113.4130859375,-113.7060546875,-114.1455078125,-114.9267578125,-115.2685546875,-116.0986328125,-116.5869140625,-117.5146484375,-117.9541015625,-116.1474609375,-116.5869140625,-115.8056640625,-116.0986328125,-114.9755859375,-114.7802734375,-114.2919921875,-113.6572265625,-113.5595703125,-112.9736328125,-113.6083984375,-113.3154296875,-113.5595703125,-113.9013671875,-113.4619140625,-113.7060546875,-114.4873046875,-114.5849609375,-114.8291015625,-114.4873046875,-115.5615234375,-116.0498046875,-116.0986328125,-116.1962890625,-117.5634765625,-117.4169921875,-118.3935546875,-119.3701171875,-120.1025390625,-121.0302734375,-121.0791015625,-119.4189453125,-118.8818359375,-117.9541015625,-118.3447265625,-117.9052734375,-116.2939453125,-116.0986328125,-116.0009765625,-116.0986328125,-114.8291015625,-115.3662109375,-114.1455078125,-114.9267578125,-114.1455078125,-114.3408203125,-114.0966796875,-114.4384765625,-114.2919921875,-115.0732421875,-115.3173828125,-115.3173828125,-115.0732421875,-115.1708984375,-115.6103515625,-115.9521484375,-116.2451171875,-116.1474609375,-116.1474609375,-115.0244140625,-114.3896484375,-113.7548828125,-112.1923828125,-110.9716796875,-110.1904296875,-109.5556640625,-108.6279296875,-107.8955078125,-107.1630859375,-106.8212890625,-105.8935546875,-105.3076171875,-105.1611328125,-105.6005859375,-105.1123046875,-105.1611328125,-104.9169921875,-104.8681640625,-105.0146484375,-104.7216796875,-104.8193359375,-104.9658203125,-105.2587890625,-105.2099609375,-105.5029296875,-105.7470703125,-106.3818359375,-107.4072265625,-106.7236328125,-104.5263671875,-102.7197265625,-101.2060546875,-100.8154296875,-99.4970703125,-97.5439453125,-96.2255859375,-96.0302734375,-94.6142578125,-94.0283203125,-92.8564453125,-92.4658203125,-92.5634765625,-92.6123046875,-92.0263671875,-92.0263671875,-92.6123046875,-93.1494140625,-92.9541015625,-93.8330078125,-94.4189453125,-95.3955078125,-95.5908203125,-96.0302734375,-97.6416015625,-97.9833984375,-98.8623046875,-99.6923828125,-100.4248046875,-100.6201171875,-101.7431640625,-100.4248046875,-98.3251953125,-98.3251953125,-97.3486328125,-96.7626953125,-95.6884765625,-95.1513671875,-94.3701171875,-94.7119140625,-94.2724609375,-95.0537109375,-94.8583984375,-94.5166015625,-95.5419921875,-95.7373046875,-95.6884765625,-96.4697265625,-97.2998046875,-97.6416015625,-98.0322265625,-98.3251953125,-98.9111328125,-100.3271484375,-100.3271484375,-101.2060546875,-102.3291015625,-102.9638671875,-103.8427734375,-103.8916015625,-101.9873046875,-101.1572265625,-100.7666015625,-100.1318359375,-98.8623046875,-98.9599609375,-98.1298828125,-97.8857421875,-97.6904296875,-98.0322265625,-97.5439453125,-98.0322265625,-98.7646484375,-98.4716796875,-98.6669921875,-98.9111328125,-99.4482421875,-100.4248046875,-100.6201171875,-101.5478515625,-101.8896484375,-103.3544921875,-102.9638671875,-104.4287109375,-105.8447265625,-106.3818359375,-106.0888671875,-107.7001953125,-107.2119140625,-105.7470703125,-105.6494140625,-104.8193359375,-103.5009765625,-102.5732421875,-101.8896484375,-100.8154296875,-100.7666015625,-100.9619140625,-101.3525390625,-100.4736328125,-100.7177734375,-100.5712890625,-100.5712890625,-100.6201171875,-101.1572265625,-101.8896484375,-101.5966796875,-102.5732421875,-103.3056640625,-103.7939453125,-104.5263671875,-105.5029296875,-106.3818359375,-107.1630859375,-107.7490234375,-108.8232421875,-109.9462890625,-110.8251953125,-111.0693359375,-109.9462890625,-110.3857421875,-109.2138671875,-109.1162109375,-108.8232421875,-108.3837890625,-108.3349609375,-107.9443359375,-107.6025390625,-107.8466796875,-107.8466796875,-107.6025390625,-107.5537109375,-108.7255859375,-108.5791015625,-108.9208984375,-109.2138671875,-110.0927734375,-110.5322265625,-111.3134765625,-112.4365234375,-112.3876953125,-113.1201171875,-113.6083984375,-114.5361328125,-115.5615234375,-115.6591796875,-116.7333984375,-116.8798828125,-116.3427734375,-115.3173828125,-115.5615234375,-114.6337890625,-114.2919921875,-113.7548828125,-112.8271484375,-113.0712890625,-112.7783203125,-112.4365234375,-112.9248046875,-112.4365234375,-112.3388671875,-112.2900390625,-112.3388671875,-112.6806640625,-113.4130859375,-113.4130859375,-113.9990234375,-114.5361328125,-114.6337890625,-114.4873046875,-115.6591796875,-115.3173828125,-117.1240234375,-116.8310546875,-117.5634765625,-117.3193359375,-116.5869140625,-115.5615234375,-115.4638671875,-114.9267578125,-114.4873046875,-113.9990234375,-113.8037109375,-113.0224609375,-113.3154296875,-112.3876953125,-112.4365234375,-111.7041015625,-112.0458984375,-110.7763671875,-111.5087890625,-111.4111328125,-112.5341796875,-111.9970703125,-112.4365234375,-112.4853515625,-112.7783203125,-113.3642578125,-112.9248046875,-113.9990234375,-114.8779296875,-115.3173828125,-116.1474609375,-116.3427734375,-115.9521484375,-114.9755859375,-114.4384765625,-113.0712890625,-113.2666015625,-111.5576171875,-110.3369140625,-109.4091796875,-108.7255859375,-108.4814453125,-107.6025390625,-106.4794921875,-105.7958984375,-106.6748046875,-105.6982421875,-105.2587890625,-105.5517578125,-104.8681640625,-105.3564453125,-105.6494140625,-105.8447265625,-106.3330078125,-106.9677734375,-107.4560546875,-107.2607421875,-107.8955078125,-107.7490234375,-107.7978515625,-108.3349609375,-109.0673828125,-109.7509765625,-108.6767578125,-107.1142578125,-106.1865234375,-105.6494140625,-104.2333984375,-103.4033203125,-102.1826171875,-100.8154296875,-99.9853515625,-100.0341796875,-98.6669921875,-98.0810546875,-97.9345703125,-97.1044921875,-96.2255859375,-95.8349609375,-95.3466796875,-95.2001953125,-95.4931640625,-95.7861328125,-95.4931640625,-96.3720703125,-96.0302734375,-96.2744140625,-96.3720703125,-97.3974609375,-97.2021484375,-97.9833984375,-98.6181640625,-97.3486328125,-95.7861328125,-94.4189453125,-93.1982421875,-92.4169921875,-90.8056640625,-89.6826171875,-88.1201171875,-87.4853515625,-87.4365234375,-86.3623046875,-85.7275390625,-84.7509765625,-85.0439453125,-84.6044921875,-84.5556640625,-84.6533203125,-84.8974609375,-84.7998046875,-85.3369140625,-85.9716796875,-85.7763671875,-85.8740234375,-85.9716796875,-86.8994140625,-87.2900390625,-87.9248046875,-88.5595703125,-86.9482421875,-85.3369140625,-84.9462890625,-83.0908203125,-81.6748046875,-80.6005859375,-80.1611328125,-78.8427734375,-78.8427734375,-78.6474609375,-78.9404296875,-77.2314453125,-77.9150390625,-78.1591796875,-78.8427734375,-78.3544921875,-79.2822265625,-79.0380859375,-80.2587890625,-81.2353515625,-81.2353515625,-81.2353515625,-81.4794921875,-82.6025390625,-83.2861328125,-84.3603515625,-84.7509765625,-85.8251953125,-86.6064453125,-87.0947265625,-87.4365234375,-86.6552734375,-84.5068359375,-84.5068359375,-83.5302734375,-83.0908203125,-82.4072265625,-81.4794921875,-80.9423828125,-80.8935546875,-82.0166015625,-81.5771484375,-81.6259765625,-81.9677734375,-82.2607421875,-82.7978515625,-83.5302734375,-84.8974609375,-86.0693359375,-86.7529296875,-87.4365234375,-87.9736328125,-89.5361328125,-90.0732421875,-90.3662109375,-92.0751953125,-92.5634765625,-93.5888671875,-95.4443359375,-95.7861328125,-97.4462890625,-98.6181640625,-99.2041015625,-97.8857421875,-98.0322265625,-98.2275390625,-97.1044921875,-97.5439453125,-96.8603515625,-97.5927734375,-96.9580078125,-97.2998046875,-97.9833984375,-98.5205078125,-98.0810546875,-98.6669921875,-99.0576171875,-99.9853515625,-100.8154296875,-100.9130859375,-101.6943359375,-102.0361328125,-103.0615234375,-103.6962890625,-105.0146484375,-105.6494140625,-105.8935546875,-106.9189453125,-108.4814453125,-108.2861328125,-109.2626953125,-110.0439453125,-108.6767578125,-108.2373046875,-107.6025390625,-107.6025390625,-107.1630859375,-106.5771484375,-105.9423828125,-105.7470703125,-105.9912109375,-105.6005859375,-105.7958984375,-105.4052734375,-106.4306640625,-106.3818359375,-106.0400390625,-106.4794921875,-106.9189453125,-106.8701171875,-107.8466796875,-108.2373046875,-108.7255859375,-109.4580078125,-109.5068359375,-110.3857421875,-111.0205078125,-111.7041015625,-112.3876953125,-112.7783203125,-112.6318359375,-111.2646484375,-110.6787109375,-110.2392578125,-110.2880859375,-109.0185546875,-108.5791015625,-107.6513671875,-108.0908203125,-107.6513671875,-107.3095703125,-106.5283203125,-106.1376953125,-106.6259765625,-106.7724609375,-106.5771484375,-106.6259765625,-107.5048828125,-107.2607421875,-107.6025390625,-107.7978515625,-109.1650390625,-109.7998046875,-109.9462890625,-110.7275390625,-111.6552734375,-111.5087890625,-113.2666015625,-113.2177734375,-113.6083984375,-113.6572265625,-112.6318359375,-111.7529296875,-112.0458984375,-111.5576171875,-110.7275390625,-109.7021484375,-109.7509765625,-109.8974609375,-109.7509765625,-109.3603515625,-108.9208984375,-109.7021484375,-108.6767578125,-109.1650390625,-109.1650390625,-109.6044921875,-110.3857421875,-110.2880859375,-110.0927734375,-110.5322265625,-111.1181640625,-111.6552734375,-111.8505859375,-112.4365234375,-113.1201171875,-113.5107421875,-114.7802734375,-114.8779296875,-115.0244140625,-115.2685546875,-114.4384765625,-113.3642578125,-112.8271484375,-111.3623046875,-111.6064453125,-110.2392578125,-109.2138671875,-108.5791015625,-108.1396484375,-107.3095703125,-107.3583984375,-105.8935546875,-106.0400390625,-105.6982421875,-105.6005859375,-105.3564453125,-105.1611328125,-105.3076171875,-105.5029296875,-104.5263671875,-104.1845703125,-104.7216796875,-104.5751953125,-104.3310546875,-104.5751953125,-104.6240234375,-104.6240234375,-102.8662109375,-101.5478515625,-99.9853515625,-98.9111328125,-97.0556640625,-95.4443359375,-93.9794921875,-92.5634765625,-91.9287109375,-90.7080078125,-90.0244140625,-88.9501953125,-87.9736328125,-87.2412109375,-86.8505859375,-87.2900390625,-87.0947265625,-86.1669921875,-86.6552734375,-85.6787109375,-86.2158203125,-86.6064453125,-86.6552734375,-86.7529296875,-87.2412109375,-87.5830078125,-87.2900390625,-87.6806640625,-86.8994140625,-84.7509765625,-82.9931640625,-81.5283203125,-80.4052734375,-79.3798828125,-76.9873046875,-74.6923828125,-74.6435546875,-73.7158203125,-72.8369140625,-72.5439453125,-71.1767578125,-71.4208984375,-71.8603515625,-71.9091796875,-71.9091796875,-71.9580078125,-72.8369140625,-73.6181640625,-73.9599609375,-74.3505859375,-74.5947265625,-76.0107421875,-76.8408203125,-77.7685546875,-79.2822265625,-80.3076171875,-81.4794921875,-81.5771484375,-81.0888671875,-79.0869140625,-79.3310546875,-78.6962890625,-77.9638671875,-76.9384765625,-76.9384765625,-76.5966796875,-76.8896484375,-77.8173828125,-77.3779296875,-77.9638671875,-78.4521484375,-78.7939453125,-79.1845703125,-79.8681640625,-80.4541015625,-80.8935546875,-82.3095703125,-83.1884765625,-83.4814453125,-85.4345703125,-85.7275390625,-86.2646484375,-87.6318359375,-88.9990234375,-90.5126953125,-91.4404296875,-92.1240234375,-91.0498046875,-91.0009765625,-90.9521484375,-90.3662109375,-90.7080078125,-89.9267578125,-89.8779296875,-89.8291015625,-90.6591796875,-90.8056640625,-91.5869140625,-91.3427734375,-91.6845703125,-92.0263671875,-92.6611328125,-93.2470703125,-94.0771484375,-95.2978515625,-95.2490234375,-97.1533203125,-97.5439453125,-98.0322265625,-98.8134765625,-99.3994140625,-100.5712890625,-100.8642578125,-101.6455078125,-102.2802734375,-101.3525390625,-100.9130859375,-100.9619140625,-101.1572265625,-100.8154296875,-99.6923828125,-100.3271484375,-100.7666015625,-100.7666015625,-100.1806640625,-101.0595703125,-101.0595703125,-101.7919921875,-102.1826171875,-102.5244140625,-102.9638671875,-103.4521484375,-103.9892578125,-105.4052734375,-105.7470703125,-105.9912109375,-107.3583984375,-108.2373046875,-108.5791015625,-109.6044921875,-110.1416015625,-111.3623046875,-111.8994140625,-112.8759765625,-112.2412109375,-111.2646484375,-111.7041015625,-111.3623046875,-111.0205078125,-110.8740234375,-110.5810546875,-110.3857421875,-109.5556640625,-109.8974609375,-109.9462890625,-109.7021484375,-109.3603515625,-109.5556640625,-109.6533203125,-109.8974609375,-110.2392578125,-110.9716796875,-110.6787109375,-111.5576171875,-111.5576171875,-113.2177734375,-113.2177734375,-114.2431640625,-115.3662109375,-116.1962890625,-116.3427734375,-118.3935546875,-118.7353515625,-119.3212890625,-120.6884765625,-120.9326171875,-120.1025390625,-120.1513671875,-119.6630859375,-119.8583984375,-119.6630859375,-119.8583984375,-119.3701171875,-119.4677734375,-119.2236328125,-119.6142578125,-118.9306640625,-119.4189453125,-118.2958984375,-119.1748046875,-119.2724609375,-119.1748046875,-119.9560546875,-120.2490234375,-120.3466796875,-120.2001953125,-121.3720703125,-121.1279296875,-121.6162109375,-122.3974609375,-122.2998046875,-123.1787109375,-124.2041015625,-124.4970703125,-124.7412109375,-124.7412109375,-123.5205078125,-122.6904296875,-122.1533203125,-121.2744140625,-120.9326171875,-119.9560546875,-119.4677734375,-119.2724609375,-118.7353515625,-118.1494140625,-117.8564453125,-117.4169921875,-116.4404296875,-116.9287109375,-116.2451171875,-116.5869140625,-116.3916015625,-116.4404296875,-116.0986328125,-116.3916015625,-116.5380859375,-116.3427734375,-116.0009765625,-116.6845703125,-117.3681640625,-117.3193359375,-117.8076171875,-116.9287109375,-115.4638671875,-114.5849609375,-112.7783203125,-111.8505859375,-110.7763671875,-109.1650390625,-107.5537109375,-106.9677734375,-106.9189453125,-105.6982421875,-103.8916015625,-103.4521484375,-102.1826171875,-101.1083984375,-100.7177734375,-100.3759765625,-99.2041015625,-99.4482421875,-99.0576171875,-98.8623046875,-98.7158203125,-99.2041015625,-98.7646484375,-99.2041015625,-98.9111328125,-98.8623046875,-98.9599609375,-99.3994140625,-99.3505859375,-98.3251953125,-95.9326171875,-94.4189453125,-92.6611328125,-90.7080078125,-88.3642578125,-86.3623046875,-84.0673828125,-83.1396484375,-81.8701171875,-80.7470703125,-79.9658203125,-78.2080078125,-77.5244140625,-77.3291015625,-77.0361328125,-76.1083984375,-76.4013671875,-76.7431640625,-76.7919921875,-77.0361328125,-77.8662109375,-78.6474609375,-78.4033203125,-79.5751953125,-80.6982421875,-81.1376953125,-82.5537109375,-83.2373046875,-84.1650390625,-85.4833984375,-84.4091796875,-82.5048828125,-80.9912109375,-80.9912109375,-79.6728515625,-79.3310546875,-78.0126953125,-77.5732421875,-76.5478515625,-76.9873046875,-77.1826171875,-76.5478515625,-76.0595703125,-77.0849609375,-77.2802734375,-77.8173828125,-78.1591796875,-79.2333984375,-79.9658203125,-79.8681640625,-81.3330078125,-81.7236328125,-82.6025390625,-83.6279296875,-84.9462890625,-85.7275390625,-86.8994140625,-87.7294921875,-88.9501953125,-88.4619140625,-87.2412109375,-86.2646484375,-86.0205078125,-85.6787109375,-85.2392578125,-84.8486328125,-84.2626953125,-84.1650390625,-85.2880859375,-84.4580078125,-84.1162109375,-84.6044921875,-84.8486328125,-85.4345703125,-86.0693359375,-86.7041015625,-87.0947265625,-88.2666015625,-88.7548828125,-88.7548828125,-90.0244140625,-91.5380859375,-92.7099609375,-93.0517578125,-94.2236328125,-96.0302734375,-96.1767578125,-96.6650390625,-95.4931640625,-94.8583984375,-94.2724609375,-93.6865234375,-93.9306640625,-92.7587890625,-92.7099609375,-91.9775390625,-92.3193359375,-92.7587890625,-92.1728515625,-92.5634765625,-92.7587890625,-93.7353515625,-93.3447265625,-94.0283203125,-94.3212890625,-95.1025390625,-95.6884765625,-96.4697265625,-97.2021484375,-98.3740234375,