PPG_subj_12,30,M,Y,Diabetic (Type 2),128,34.0239,Forehead,0.185546875,0.185546875,0.185546875,0.185546875,0.185546875,0.185546875,92.3193359375,-97.1435546875,-98.1689453125,-99.5849609375,-100.7568359375,-101.3916015625,-102.7099609375,-103.3935546875,-103.9794921875,-105.0537109375,-106.0302734375,-106.6162109375,-107.8857421875,-108.8134765625,-109.7412109375,-108.9111328125,-107.0068359375,-103.2958984375,-101.0009765625,-98.5107421875,-96.8994140625,-94.6044921875,-94.0185546875,-94.4580078125,-94.7998046875,-94.2626953125,-94.3603515625,-94.3115234375,-94.8486328125,-95.5322265625,-96.4111328125,-97.6806640625,-99.0478515625,-98.7060546875,-100.4150390625,-101.0498046875,-102.4658203125,-103.2470703125,-103.7353515625,-104.9560546875,-105.6884765625,-106.9091796875,-108.0810546875,-109.3505859375,-109.8876953125,-109.1552734375,-107.6416015625,-105.4443359375,-102.0751953125,-99.6826171875,-98.0712890625,-96.2646484375,-95.0439453125,-95.2880859375,-96.4599609375,-96.4599609375,-95.5810546875,-95.6787109375,-96.2646484375,-97.3388671875,-98.0712890625,-99.1455078125,-100.1220703125,-100.4638671875,-101.1474609375,-102.5634765625,-103.3447265625,-104.5654296875,-105.6884765625,-105.8837890625,-106.9091796875,-108.1787109375,-109.1552734375,-110.0341796875,-110.8642578125,-110.1318359375,-107.8369140625,-104.6630859375,-102.2705078125,-99.9755859375,-98.2177734375,-96.7529296875,-95.7763671875,-95.9716796875,-96.0205078125,-95.9716796875,-95.5810546875,-96.1669921875,-96.1181640625,-96.6064453125,-97.2900390625,-98.2666015625,-99.7314453125,-100.3173828125,-101.4892578125,-102.4169921875,-103.4423828125,-104.0771484375,-105.2978515625,-105.8837890625,-106.6650390625,-108.1298828125,-109.6923828125,-110.6689453125,-111.3037109375,-111.0107421875,-108.0810546875,-105.1513671875,-102.3681640625,-100.3173828125,-98.5107421875,-96.0693359375,-94.7021484375,-95.7763671875,-95.5810546875,-95.6298828125,-95.0927734375,-95.6298828125,-96.2646484375,-96.3623046875,-97.4365234375,-98.4130859375,-99.8779296875,-100.0244140625,-101.4404296875,-101.6845703125,-103.1005859375,-103.7841796875,-104.9072265625,-105.8349609375,-106.4208984375,-107.4951171875,-108.3251953125,-109.7900390625,-110.8642578125,-110.4736328125,-108.3251953125,-106.3720703125,-102.8564453125,-100.7080078125,-99.0478515625,-97.2900390625,-96.0693359375,-96.2158203125,-96.3134765625,-96.5087890625,-95.9716796875,-96.0205078125,-96.4111328125,-97.1435546875,-98.5107421875,-99.1455078125,-99.4873046875,-101.3916015625,-101.3427734375,-102.4658203125,-104.4189453125,-105.9326171875,-106.3720703125,-106.7138671875,-108.4228515625,-109.5458984375,-110.8154296875,-112.2314453125,-112.6708984375,-112.5244140625,-110.5224609375,-108.0322265625,-105.6884765625,-103.4423828125,-101.0498046875,-99.5361328125,-98.0712890625,-98.8037109375,-99.3408203125,-99.7314453125,-100.1708984375,-99.6337890625,-100.7080078125,-100.6103515625,-101.8798828125,-102.7587890625,-104.6630859375,-105.2490234375,-106.8603515625,-107.3486328125,-108.6669921875,-109.4970703125,-110.2294921875,-111.6455078125,-112.2802734375,-113.3056640625,-114.9658203125,-116.0400390625,-117.3095703125,-117.8955078125,-115.1123046875,-112.2802734375,-109.8388671875,-107.1044921875,-105.8349609375,-103.2958984375,-101.1474609375,-101.1962890625,-101.5869140625,-102.2216796875,-101.5869140625,-101.2939453125,-101.2451171875,-102.1240234375,-103.1005859375,-103.6376953125,-104.8095703125,-105.7861328125,-107.0556640625,-108.4228515625,-109.2529296875,-109.8876953125,-111.0107421875,-111.9384765625,-112.8173828125,-114.0869140625,-114.6728515625,-116.9677734375,-117.6513671875,-118.8232421875,-117.7490234375,-115.7470703125,-112.9638671875,-110.2783203125,-107.4951171875,-105.2978515625,-103.7353515625,-103.2470703125,-103.2470703125,-103.9306640625,-103.7841796875,-103.6865234375,-103.6865234375,-103.4423828125,-104.2724609375,-105.5419921875,-106.2744140625,-107.1533203125,-107.6904296875,-109.3505859375,-109.9853515625,-111.4501953125,-112.4267578125,-112.9638671875,-114.2333984375,-115.2099609375,-116.5771484375,-117.3095703125,-118.8232421875,-119.7509765625,-120.1904296875,-119.1162109375,-116.7724609375,-113.9892578125,-111.2548828125,-108.4716796875,-106.5673828125,-104.9560546875,-103.6865234375,-104.4189453125,-104.0283203125,-103.8818359375,-104.4677734375,-103.9306640625,-104.5166015625,-105.4931640625,-106.1279296875,-107.2021484375,-107.6904296875,-108.5205078125,-109.7900390625,-110.5224609375,-112.4267578125,-112.8662109375,-114.3798828125,-114.6240234375,-115.4052734375,-117.1630859375,-117.9931640625,-119.0673828125,-120.4833984375,-120.1416015625,-118.8232421875,-116.4794921875,-113.5498046875,-110.4736328125,-108.4228515625,-106.2744140625,-105.2978515625,-104.9560546875,-105.6884765625,-105.4931640625,-104.9560546875,-105.2978515625,-105.1025390625,-105.6396484375,-106.7626953125,-107.4951171875,-108.9599609375,-110.1806640625,-110.6201171875,-112.2802734375,-112.5732421875,-113.8916015625,-114.8681640625,-115.8447265625,-116.7724609375,-117.3583984375,-118.2373046875,-119.7509765625,-121.3623046875,-122.0947265625,-122.3876953125,-120.3857421875,-116.9677734375,-113.6474609375,-111.3525390625,-109.3017578125,-107.0068359375,-105.0537109375,-105.2978515625,-105.8837890625,-106.1767578125,-105.1025390625,-105.2978515625,-106.1279296875,-106.4208984375,-106.5673828125,-108.1298828125,-108.9111328125,-110.4248046875,-110.7666015625,-111.4990234375,-113.3056640625,-114.3798828125,-114.7216796875,-116.1376953125,-116.8212890625,-118.0908203125,-118.5791015625,-120.3369140625,-121.6552734375,-121.8017578125,-121.8994140625,-120.0439453125,-117.0654296875,-113.6962890625,-111.4013671875,-108.2275390625,-106.9580078125,-105.2001953125,-105.3955078125,-106.1767578125,-106.0791015625,-106.3232421875,-105.9326171875,-106.0791015625,-106.7626953125,-107.0068359375,-108.2275390625,-109.3994140625,-110.2783203125,-111.0595703125,-111.9384765625,-113.3056640625,-114.1357421875,-115.2099609375,-115.5517578125,-116.3818359375,-117.5537109375,-118.8720703125,-120.6298828125,-121.2158203125,-121.8505859375,-121.1669921875,-118.0419921875,-115.2099609375,-112.7685546875,-109.6435546875,-107.4951171875,-105.9326171875,-105.2001953125,-105.3955078125,-105.0537109375,-105.2001953125,-104.6630859375,-105.1513671875,-105.6396484375,-105.9326171875,-106.7138671875,-107.9345703125,-109.3505859375,-109.3505859375,-110.3271484375,-111.7431640625,-112.0849609375,-113.0126953125,-114.1357421875,-114.6728515625,-115.8447265625,-117.5048828125,-118.3837890625,-119.5068359375,-120.3369140625,-120.5810546875,-118.2861328125,-115.3564453125,-111.7431640625,-108.8134765625,-106.8115234375,-104.1748046875,-102.9052734375,-102.2705078125,-101.6845703125,-101.6845703125,-101.9775390625,-101.2939453125,-102.3193359375,-102.6123046875,-103.4912109375,-104.0771484375,-104.7119140625,-105.5908203125,-106.2255859375,-107.5439453125,-108.1787109375,-108.9111328125,-110.3271484375,-110.9619140625,-111.6455078125,-112.8662109375,-114.4775390625,-115.2099609375,-116.4306640625,-116.6748046875,-116.1865234375,-113.4521484375,-109.9853515625,-107.9833984375,-105.4443359375,-103.0517578125,-101.3427734375,-100.2197265625,-100.7080078125,-100.8056640625,-100.8544921875,-100.7080078125,-100.8544921875,-101.6357421875,-101.6845703125,-103.2470703125,-103.4912109375,-104.9072265625,-106.7626953125,-107.0556640625,-108.0322265625,-109.1552734375,-110.2294921875,-110.5712890625,-111.5966796875,-112.1826171875,-113.2080078125,-114.6728515625,-115.9912109375,-116.0888671875,-115.3564453125,-113.6474609375,-110.3271484375,-107.1533203125,-104.4677734375,-102.4169921875,-100.6591796875,-99.7802734375,-99.8291015625,-100.6103515625,-100.3173828125,-99.2919921875,-100.2685546875,-100.5615234375,-101.0009765625,-101.4892578125,-102.4169921875,-103.6865234375,-105.1513671875,-105.5419921875,-107.0556640625,-107.8857421875,-108.9599609375,-109.8388671875,-110.3271484375,-111.7431640625,-112.7197265625,-113.7451171875,-114.9658203125,-116.2841796875,-114.8193359375,-113.2080078125,-109.7412109375,-106.6162109375,-104.5654296875,-102.2216796875,-99.7314453125,-98.5107421875,-99.3896484375,-99.6826171875,-99.4384765625,-98.6572265625,-99.1455078125,-100.2685546875,-100.9521484375,-101.6845703125,-102.2216796875,-103.5400390625,-103.9794921875,-105.4443359375,-106.8603515625,-107.2509765625,-108.7646484375,-108.7646484375,-110.2783203125,-110.8154296875,-111.9873046875,-113.5009765625,-114.7216796875,-115.2587890625,-114.0869140625,-111.4501953125,-109.1552734375,-105.6884765625,-103.2470703125,-100.6591796875,-99.1943359375,-98.2177734375,-98.6083984375,-98.6083984375,-98.4619140625,-98.6572265625,-98.5107421875,-98.1689453125,-99.5849609375,-100.5126953125,-100.8056640625,-102.2705078125,-102.8076171875,-104.3701171875,-105.2001953125,-105.8349609375,-106.6162109375,-108.1787109375,-108.1787109375,-110.3271484375,-111.7431640625,-112.7685546875,-113.2080078125,-113.7939453125,-112.5244140625,-110.0830078125,-106.3720703125,-103.0029296875,-101.6357421875,-99.0478515625,-97.4853515625,-97.4853515625,-97.7783203125,-97.3876953125,-97.1923828125,-96.9970703125,-98.1689453125,-98.4619140625,-98.6572265625,-100.5615234375,-100.6103515625,-102.1728515625,-103.2470703125,-103.4423828125,-105.2490234375,-105.6396484375,-106.4697265625,-107.7392578125,-108.7646484375,-109.6435546875,-111.5478515625,-111.4990234375,-113.0126953125,-111.5478515625,-108.0322265625,-105.8837890625,-101.7822265625,-100.1708984375,-98.3642578125,-96.0205078125,-96.4111328125,-96.8505859375,-96.8994140625,-96.7041015625,-96.3623046875,-96.7041015625,-97.2412109375,-97.4853515625,-98.5107421875,-100.0244140625,-100.2685546875,-102.3681640625,-103.5400390625,-103.8330078125,-104.6142578125,-105.8837890625,-106.6162109375,-107.4951171875,-108.7158203125,-110.0830078125,-110.6201171875,-111.9384765625,-110.8154296875,-107.7880859375,-104.3212890625,-100.8544921875,-98.5595703125,-96.6552734375,-94.4091796875,-93.4326171875,-93.8232421875,-93.9697265625,-93.8720703125,-93.6279296875,-93.6279296875,-94.2626953125,-95.1416015625,-95.9228515625,-97.2900390625,-97.8759765625,-99.3408203125,-100.8056640625,-101.5869140625,-102.0751953125,-102.8564453125,-104.0283203125,-104.9072265625,-105.9326171875,-107.6904296875,-108.4716796875,-109.8876953125,-109.0087890625,-107.2021484375,-103.7353515625,-100.5615234375,-98.0712890625,-96.0693359375,-93.2861328125,-92.7490234375,-93.1884765625,-93.1396484375,-92.7490234375,-92.7490234375,-93.5302734375,-93.6279296875,-94.7509765625,-95.4833984375,-96.7041015625,-97.3876953125,-99.0478515625,-99.7314453125,-101.0498046875,-102.6123046875,-103.0029296875,-104.1748046875,-104.9072265625,-106.4208984375,-107.4951171875,-108.9111328125,-109.3017578125,-108.7158203125,-107.1533203125,-104.0771484375,-100.6591796875,-97.8271484375,-96.2158203125,-93.6767578125,-92.1630859375,-92.9443359375,-93.1884765625,-92.7490234375,-92.7001953125,-93.2861328125,-92.8466796875,-94.6044921875,-94.8486328125,-95.7275390625,-96.6552734375,-97.4853515625,-98.7060546875,-100.1708984375,-101.0498046875,-101.9775390625,-102.9052734375,-103.8330078125,-105.1513671875,-106.6650390625,-107.8857421875,-108.4228515625,-108.3740234375,-105.7373046875,-103.0517578125,-99.6337890625,-97.7294921875,-94.3603515625,-92.9443359375,-91.9677734375,-92.1142578125,-92.5537109375,-92.3095703125,-92.1142578125,-91.8212890625,-92.3583984375,-93.4814453125,-94.0185546875,-94.9462890625,-96.5087890625,-97.8759765625,-98.5107421875,-99.5849609375,-100.1708984375,-101.5869140625,-102.6611328125,-103.1494140625,-105.3955078125,-106.0302734375,-106.8603515625,-108.1298828125,-107.7880859375,-106.0791015625,-103.2958984375,-99.5361328125,-97.2900390625,-94.8974609375,-92.7490234375,-90.6005859375,-90.3564453125,-91.1376953125,-91.4794921875,-91.5283203125,-91.5771484375,-91.8212890625,-92.1630859375,-93.3349609375,-94.6533203125,-96.2158203125,-96.8505859375,-97.5341796875,-98.8037109375,-100.7080078125,-101.1474609375,-102.8564453125,-103.2958984375,-104.4189453125,-106.0302734375,-107.4951171875,-108.9599609375,-109.0087890625,-107.4951171875,-104.1259765625,-100.3173828125,-98.3642578125,-95.7275390625,-93.2861328125,-92.1142578125,-91.6748046875,-92.6025390625,-92.8955078125,-92.0166015625,-92.7001953125,-92.4072265625,-93.5791015625,-94.6044921875,-95.3369140625,-96.6064453125,-97.6318359375,-98.7060546875,-100.0732421875,-101.0009765625,-102.6123046875,-103.8818359375,-104.4677734375,-106.3232421875,-106.7626953125,-109.0087890625,-109.7900390625,-109.9853515625,-108.5693359375,-105.3466796875,-102.3681640625,-99.2919921875,-96.4111328125,-95.4833984375,-93.1884765625,-93.4814453125,-94.1650390625,-94.7509765625,-94.3115234375,-94.2626953125,-94.7509765625,-94.8486328125,-96.2158203125,-97.0458984375,-98.7060546875,-99.1455078125,-101.0009765625,-101.9287109375,-103.2470703125,-104.6142578125,-105.2978515625,-106.0791015625,-107.1533203125,-108.1787109375,-109.7900390625,-111.4013671875,-112.3291015625,-111.3037109375,-109.1064453125,-105.1513671875,-101.7333984375,-98.9501953125,-97.1923828125,-95.2392578125,-93.7255859375,-94.0673828125,-94.4091796875,-94.4580078125,-94.4091796875,-94.4580078125,-95.1904296875,-96.4111328125,-97.3876953125,-98.6083984375,-99.2919921875,-100.7080078125,-102.3681640625,-102.4658203125,-104.2724609375,-105.1513671875,-105.7861328125,-107.2021484375,-107.9345703125,-109.3017578125,-110.0830078125,-111.8896484375,-111.8408203125,-110.1318359375,-106.9091796875,-104.0283203125,-100.7080078125,-98.3642578125,-96.4599609375,-94.9462890625,-94.4580078125,-94.7021484375,-95.1416015625,-94.5068359375,-94.5556640625,-95.0439453125,-95.2880859375,-96.2158203125,-96.6064453125,-97.8271484375,-99.5849609375,-100.1220703125,-100.9033203125,-102.6123046875,-103.0517578125,-104.3212890625,-105.1513671875,-106.1279296875,-107.1533203125,-108.9111328125,-109.9853515625,-110.6689453125,-110.3759765625,-108.3740234375,-105.2978515625,-102.3681640625,-99.5361328125,-97.7294921875,-95.5322265625,-94.2138671875,-94.5556640625,-94.9951171875,-95.3369140625,-94.6533203125,-95.1904296875,-96.6064453125,-96.2646484375,-97.1435546875,-98.2177734375,-99.4384765625,-101.3427734375,-101.8310546875,-102.7587890625,-103.4912109375,-105.4443359375,-105.8349609375,-107.1044921875,-108.1298828125,-109.1064453125,-111.0595703125,-112.1337890625,-113.1591796875,-112.9150390625,-111.1572265625,-107.5439453125,-104.2236328125,-101.2939453125,-99.0478515625,-96.7041015625,-95.7275390625,-95.3857421875,-96.1669921875,-96.3134765625,-95.8740234375,-95.2880859375,-96.3623046875,-97.4853515625,-97.4365234375,-98.6572265625,-99.9267578125,-101.1474609375,-101.8798828125,-103.3447265625,-104.7119140625,-104.9560546875,-106.9580078125,-106.7626953125,-108.1298828125,-109.5947265625,-110.8154296875,-111.8408203125,-113.0126953125,-113.2568359375,-111.4013671875,-108.3251953125,-104.6630859375,-101.9287109375,-99.6826171875,-97.0458984375,-96.4111328125,-96.6552734375,-97.1435546875,-97.2900390625,-97.5341796875,-96.9970703125,-97.1435546875,-97.7783203125,-98.6572265625,-99.7802734375,-100.7080078125,-101.5869140625,-102.7099609375,-103.6376953125,-104.8095703125,-105.8837890625,-107.2509765625,-108.0810546875,-108.9111328125,-110.2294921875,-110.6689453125,-112.3779296875,-113.1103515625,-112.7197265625,-111.1572265625,-108.0322265625,-104.6142578125,-102.2216796875,-99.9755859375,-98.0712890625,-96.6064453125,-96.0205078125,-96.6552734375,-96.9482421875,-96.8994140625,-96.4111328125,-97.3388671875,-97.3876953125,-98.5595703125,-100.1708984375,-100.3173828125,-101.8798828125,-102.8564453125,-104.0283203125,-105.1025390625,-105.6396484375,-107.1533203125,-107.9833984375,-108.4716796875,-109.8876953125,-111.2060546875,-112.1337890625,-113.3544921875,-113.2080078125,-110.9619140625,-106.5185546875,-103.7841796875,-100.9521484375,-98.4619140625,-96.4111328125,-94.2626953125,-94.9462890625,-95.1904296875,-95.2392578125,-95.4833984375,-94.9951171875,-95.6787109375,-96.6552734375,-96.9482421875,-97.7783203125,-98.8037109375,-99.9267578125,-100.6591796875,-101.9287109375,-103.1005859375,-104.1748046875,-104.7607421875,-105.4443359375,-106.9580078125,-108.2275390625,-108.9111328125,-111.1083984375,-111.0107421875,-109.7900390625,-107.2998046875,-104.0771484375,-100.2685546875,-98.3642578125,-95.4833984375,-94.1162109375,-92.6513671875,-93.6279296875,-94.1162109375,-93.6279296875,-94.3603515625,-93.6279296875,-94.7021484375,-95.3857421875,-96.3623046875,-96.8994140625,-98.6572265625,-99.1943359375,-100.6103515625,-101.6357421875,-102.5146484375,-103.6376953125,-104.7119140625,-105.6884765625,-106.1279296875,-107.6904296875,-109.1064453125,-109.8876953125,-110.2783203125,-108.8623046875,-105.0048828125,-102.4169921875,-99.2431640625,-97.0947265625,-94.7998046875,-93.4814453125,-93.6767578125,-93.4326171875,-94.4580078125,-93.4326171875,-93.3837890625,-93.4326171875,-94.6044921875,-95.1904296875,-96.0205078125,-96.5576171875,-98.3154296875,-98.9501953125,-100.4150390625,-101.0498046875,-101.7822265625,-102.5634765625,-103.2958984375,-104.2236328125,-105.2978515625,-107.4951171875,-107.5439453125,-108.2763671875,-107.4951171875,-104.6630859375,-100.8056640625,-98.5107421875,-95.6787109375,-94.3603515625,-91.7236328125,-90.6982421875,-91.5283203125,-91.2353515625,-91.7236328125,-91.6259765625,-92.1630859375,-91.9677734375,-93.0419921875,-93.9208984375,-94.3603515625,-96.3134765625,-97.6318359375,-97.7294921875,-99.2919921875,-100.4638671875,-101.0009765625,-102.1728515625,-103.0517578125,-104.3701171875,-104.6630859375,-106.4697265625,-107.4462890625,-108.0322265625,-106.4208984375,-103.0517578125,-99.6337890625,-96.4111328125,-93.5791015625,-91.6748046875,-90.6005859375,-89.9658203125,-90.1123046875,-90.6982421875,-89.6240234375,-90.0634765625,-90.4541015625,-90.6494140625,-91.8701171875,-92.0654296875,-93.4326171875,-94.6044921875,-95.3369140625,-97.1435546875,-97.5830078125,-98.6572265625,-100.2197265625,-100.7568359375,-100.8544921875,-102.7587890625,-103.2470703125,-104.5166015625,-106.0302734375,-105.9326171875,-105.2490234375,-101.9287109375,-99.2431640625,-96.2646484375,-94.0185546875,-92.4072265625,-90.5029296875,-90.0634765625,-91.2353515625,-91.0400390625,-91.6748046875,-90.9423828125,-90.8447265625,-91.8212890625,-92.6513671875,-93.6767578125,-94.6044921875,-96.2158203125,-96.9482421875,-98.1201171875,-99.1455078125,-100.9033203125,-101.6357421875,-102.6611328125,-102.6123046875,-104.5654296875,-105.3955078125,-106.7626953125,-108.1787109375,-107.6904296875,-105.7373046875,-103.0029296875,-99.1455078125,-97.4853515625,-95.0439453125,-92.5048828125,-92.2119140625,-92.2119140625,-91.8701171875,-92.2119140625,-92.6513671875,-92.2607421875,-93.0419921875,-92.8955078125,-94.1650390625,-94.6044921875,-95.9228515625,-97.1435546875,-97.7783203125,-98.9501953125,-99.1455078125,-100.6591796875,-102.1728515625,-102.6611328125,-102.7587890625,-104.7607421875,-105.0048828125,-106.8115234375,-107.2998046875,-106.6650390625,-105.2978515625,-101.5869140625,-97.5341796875,-95.9716796875,-93.2861328125,-91.5283203125,-90.0146484375,-89.9658203125,-90.3564453125,-89.6728515625,-89.4287109375,-89.8193359375,-89.5263671875,-90.6005859375,-91.1865234375,-91.6259765625,-92.9443359375,-93.9208984375,-94.1162109375,-96.1181640625,-96.8994140625,-97.8759765625,-98.1689453125,-98.7060546875,-99.9755859375,-100.9521484375,-101.8798828125,-103.8330078125,-104.0283203125,-103.5400390625,-101.9287109375,-98.5595703125,-94.9462890625,-92.5537109375,-90.0146484375,-88.2080078125,-87.1337890625,-87.4267578125,-88.7451171875,-88.0615234375,-89.3310546875,-88.8427734375,-88.7451171875,-89.5751953125,-89.5751953125,-90.4052734375,-91.5771484375,-91.7724609375,-93.1884765625,-93.7744140625,-94.8974609375,-95.7763671875,-96.6552734375,-97.3388671875,-97.7294921875,-98.8037109375,-100.5615234375,-101.6845703125,-101.4892578125,-101.9287109375,-99.3896484375,-96.1669921875,-93.2373046875,-91.3330078125,-88.4521484375,-87.4755859375,-86.4990234375,-86.6943359375,-87.0849609375,-86.9384765625,-87.8173828125,-87.1826171875,-87.8173828125,-88.6962890625,-89.5751953125,-90.6494140625,-91.4306640625,-92.6513671875,-93.4814453125,-94.4580078125,-95.4345703125,-96.4111328125,-97.2412109375,-98.7060546875,-99.1943359375,-100.4638671875,-101.6357421875,-102.8564453125,-103.2470703125,-102.2705078125,-98.7060546875,-95.1904296875,-92.1630859375,-89.6240234375,-87.3779296875,-85.6201171875,-85.1318359375,-85.9619140625,-86.3037109375,-86.4501953125,-86.8896484375,-86.6455078125,-87.7197265625,-88.2080078125,-89.2822265625,-90.0146484375,-91.1865234375,-92.0166015625,-92.7001953125,-93.8232421875,-94.7998046875,-96.1181640625,-96.8994140625,-97.6318359375,-98.8037109375,-100.0244140625,-101.1474609375,-102.2216796875,-102.6123046875,-101.0986328125,-98.1201171875,-94.7021484375,-91.9677734375,-89.7705078125,-87.3779296875,-86.0595703125,-86.0107421875,-85.8154296875,-86.5966796875,-86.9873046875,-86.4990234375,-87.0361328125,-87.1826171875,-88.2080078125,-89.3310546875,-90.1611328125,-91.2353515625,-92.6513671875,-93.1884765625,-94.7509765625,-95.1416015625,-96.8994140625,-97.5830078125,-98.3154296875,-99.4384765625,-100.6591796875,-102.2216796875,-103.0517578125,-102.1240234375,-99.6826171875,-97.2412109375,-93.6767578125,-90.8447265625,-89.2333984375,-87.5244140625,-86.2548828125,-87.0361328125,-87.5244140625,-87.5244140625,-86.8408203125,-86.9873046875,-87.5732421875,-88.4033203125,-89.7216796875,-90.0634765625,-91.4306640625,-92.1630859375,-93.4814453125,-94.5068359375,-94.8974609375,-95.6787109375,-96.8994140625,-97.5830078125,-99.0966796875,-100.1708984375,-101.4892578125,-102.9541015625,-101.4404296875,-99.3408203125,-96.3623046875,-93.5302734375,-90.7470703125,-88.2568359375,-86.1572265625,-84.8876953125,-85.9130859375,-85.6689453125,-85.5712890625,-85.6201171875,-85.9619140625,-86.3525390625,-86.8408203125,-87.4755859375,-89.1845703125,-89.9658203125,-91.1376953125,-92.6025390625,-93.2373046875,-94.1650390625,-95.4833984375,-96.1669921875,-96.5087890625,-98.0712890625,-99.7314453125,-100.3173828125,-101.0498046875,-100.6591796875,-97.8759765625,-94.6044921875,-91.2841796875,-88.2080078125,-86.3525390625,-84.6435546875,-83.0810546875,-83.0810546875,-83.2763671875,-83.3251953125,-83.1298828125,-83.7646484375,-84.5458984375,-85.1806640625,-85.3759765625,-86.8408203125,-88.2080078125,-88.6962890625,-89.8681640625,-91.4794921875,-91.7236328125,-91.7236328125,-93.2861328125,-93.5791015625,-95.3857421875,-97.1923828125,-98.8525390625,-99.6337890625,-98.4130859375,-95.7275390625,-93.1396484375,-89.5751953125,-87.3779296875,-85.0830078125,-82.8857421875,-82.4462890625,-83.0810546875,-82.8369140625,-83.1298828125,-82.5927734375,-83.3251953125,-83.4228515625,-84.3017578125,-85.3271484375,-87.0849609375,-87.6220703125,-88.4033203125,-89.0869140625,-90.9423828125,-91.7236328125,-92.2119140625,-93.9697265625,-94.7021484375,-96.0693359375,-97.0458984375,-97.8271484375,-98.2177734375,-96.8017578125,-93.3349609375,-89.9658203125,-87.0361328125,-84.7412109375,-81.8603515625,-80.4931640625,-80.4443359375,-82.2509765625,-81.2255859375,-80.6396484375,-80.9326171875,-81.9580078125,-82.4951171875,-83.0322265625,-84.2041015625,-85.5712890625,-86.5478515625,-87.5732421875,-89.1357421875,-89.9169921875,-90.8447265625,-92.0166015625,-93.1396484375,-93.9697265625,-95.5810546875,-97.1435546875,-97.3876953125,-96.4599609375,-93.0908203125,-89.8193359375,-86.7919921875,-84.0087890625,-81.4697265625,-79.9072265625,-79.7119140625,-80.3955078125,-80.4931640625,-80.2978515625,-80.0048828125,-80.7861328125,-81.7626953125,-82.2021484375,-83.7158203125,-84.6923828125,-85.9130859375,-87.9150390625,-89.2822265625,-89.9169921875,-90.9423828125,-91.8212890625,-93.2373046875,-94.3115234375,-95.8251953125,-97.2412109375,-98.0224609375,-97.8759765625,-95.5322265625,-92.2607421875,-89.0869140625,-85.6201171875,-83.1298828125,-80.8837890625,-79.3212890625,-78.9306640625,-80.3466796875,-80.4443359375,-80.0048828125,-80.1513671875,-81.0302734375,-81.9580078125,-83.1787109375,-85.1806640625,-85.6689453125,-87.5244140625,-88.8916015625,-89.6240234375,-90.8447265625,-91.9189453125,-92.9443359375,-93.9697265625,-95.4345703125,-97.1923828125,-98.1201171875,-99.0478515625,-98.3154296875,-95.3857421875,-91.6748046875,-88.9404296875,-86.5966796875,-83.2275390625,-81.0791015625,-79.7607421875,-81.0302734375,-80.9814453125,-81.5673828125,-81.3232421875,-81.9091796875,-82.2021484375,-83.2275390625,-84.3994140625,-85.9130859375,-87.0849609375,-88.6962890625,-89.7705078125,-91.1376953125,-92.2607421875,-93.3349609375,-94.2626953125,-95.0927734375,-97.1435546875,-98.8525390625,-100.3662109375,-99.3408203125,-98.3154296875,-95.1416015625,-91.4306640625,-88.7451171875,-85.8642578125,-83.3740234375,-82.0068359375,-81.6162109375,-82.6416015625,-83.0810546875,-82.3486328125,-82.4462890625,-83.3251953125,-84.4482421875,-85.5224609375,-86.6943359375,-88.2080078125,-89.0380859375,-90.1123046875,-91.4306640625,-93.0419921875,-93.7744140625,-95.3369140625,-96.6552734375,-97.4365234375,-99.2919921875,-101.1474609375,-101.9287109375,-101.9775390625,-99.6337890625,-95.8740234375,-92.7001953125,-89.9169921875,-86.6455078125,-84.3994140625,-82.5439453125,-82.4951171875,-84.1064453125,-83.7646484375,-83.9599609375,-84.1064453125,-84.2529296875,-84.8876953125,-85.9619140625,-87.4755859375,-89.8193359375,-90.4541015625,-91.8212890625,-93.1396484375,-93.7744140625,-95.1904296875,-96.5576171875,-97.4365234375,-98.7548828125,-100.1708984375,-101.2451171875,-102.5146484375,-102.3193359375,-99.8779296875,-96.9482421875,-93.6279296875,-90.2099609375,-87.4755859375,-84.8388671875,-83.1298828125,-84.0576171875,-84.5458984375,-84.5458984375,-84.5458984375,-84.7412109375,-85.5712890625,-86.1083984375,-87.2314453125,-88.2568359375,-89.3310546875,-91.0400390625,-92.0166015625,-93.8720703125,-94.9951171875,-96.0693359375,-97.2900390625,-98.0224609375,-99.4384765625,-100.9521484375,-102.7587890625,-104.2724609375,-104.0771484375,-101.8310546875,-99.2431640625,-95.1416015625,-92.4560546875,-89.7216796875,-87.6220703125,-85.6201171875,-85.2783203125,-86.6455078125,-86.6455078125,-86.6943359375,-86.0107421875,-86.9873046875,-87.6708984375,-88.9404296875,-89.9169921875,-91.6259765625,-92.5048828125,-94.4580078125,-95.2392578125,-96.6552734375,-97.7783203125,-98.4619140625,-99.6826171875,-101.5869140625,-103.0517578125,-104.0771484375,-105.4931640625,-105.0048828125,-103.5888671875,-100.3662109375,-97.4365234375,-93.5302734375,-91.1376953125,-88.7939453125,-86.9384765625,-87.7685546875,-88.0615234375,-87.6220703125,-87.7197265625,-87.8662109375,-89.0380859375,-89.3798828125,-90.3076171875,-91.2353515625,-92.2607421875,-94.1162109375,-95.4833984375,-95.6298828125,-98.1689453125,-98.3154296875,-99.7314453125,-101.0498046875,-101.8310546875,-104.1748046875,-105.2001953125,-106.0302734375,-106.6162109375,-104.5166015625,-100.7568359375,-97.6806640625,-94.5068359375,-91.5283203125,-88.7939453125,-87.2802734375,-86.7431640625,-87.6708984375,-86.9384765625,-87.4267578125,-87.6708984375,-87.7197265625,-89.1845703125,-89.6728515625,-90.6494140625,-92.5537109375,-93.4326171875,-94.7509765625,-96.1181640625,-97.0947265625,-97.8271484375,-99.1943359375,-100.3173828125,-101.2451171875,-103.1005859375,-104.0771484375,-106.2744140625,-106.5185546875,-104.9560546875,-102.6611328125,-98.9013671875,-96.1669921875,-92.0654296875,-89.9658203125,-88.1103515625,-86.2060546875,-86.9873046875,-87.3779296875,-86.6943359375,-86.6455078125,-87.3291015625,-87.9150390625,-88.8916015625,-89.5263671875,-90.3076171875,-92.3583984375,-93.4814453125,-94.7021484375,-96.0205078125,-97.0947265625,-98.2177734375,-99.6337890625,-100.4150390625,-101.8798828125,-103.0029296875,-104.6630859375,-105.5908203125,-105.2978515625,-102.7587890625,-99.3408203125,-95.5322265625,-92.9443359375,-89.8681640625,-87.3291015625,-85.7177734375,-85.5224609375,-85.9130859375,-86.4501953125,-86.5478515625,-86.3037109375,-87.2802734375,-87.8662109375,-89.3310546875,-90.6982421875,-92.0166015625,-93.2373046875,-94.6044921875,-95.5322265625,-97.3876953125,-98.4619140625,-99.2919921875,-100.8544921875,-101.9775390625,-103.9306640625,-105.5908203125,-107.1044921875,-107.1044921875,-105.8837890625,-102.6123046875,-98.3154296875,-94.9462890625,-91.8701171875,-89.0869140625,-86.7431640625,-87.0849609375,-87.4755859375,-87.4755859375,-87.9150390625,-87.5244140625,-88.6474609375,-88.7939453125,-89.9169921875,-91.0888671875,-92.3583984375,-94.4091796875,-95.2392578125,-97.0947265625,-98.0224609375,-99.3896484375,-100.7568359375,-101.5380859375,-102.9541015625,-104.5654296875,-105.7861328125,-107.3974609375,-108.5205078125,-107.6416015625,-105.3955078125,-101.4892578125,-98.3154296875,-95.0927734375,-92.7978515625,-90.4052734375,-89.5263671875,-89.7216796875,-90.7958984375,-90.9423828125,-90.8447265625,-90.2099609375,-91.5771484375,-92.6025390625,-93.0908203125,-94.4580078125,-96.4111328125,-97.2412109375,-98.3642578125,-100.1708984375,-100.7080078125,-102.3193359375,-103.4423828125,-104.8095703125,-105.7373046875,-107.1044921875,-108.9111328125,-110.3271484375,-110.0830078125,-109.3017578125,-105.4931640625,-101.6845703125,-99.3896484375,-95.8251953125,-94.7021484375,-92.2119140625,-92.6513671875,-93.3349609375,-93.5302734375,-93.0908203125,-92.9443359375,-94.0185546875,-94.6533203125,-96.5087890625,-96.7041015625,-98.8525390625,-99.5849609375,-101.6845703125,-103.0029296875,-103.8818359375,-105.0048828125,-106.0791015625,-107.2998046875,-107.7880859375,-109.5458984375,-110.9619140625,-112.1337890625,-113.1103515625,-111.4990234375,-109.1552734375,-104.8095703125,-102.4658203125,-99.4873046875,-97.5830078125,-96.0205078125,-94.8486328125,-95.4833984375,-95.9716796875,-95.7275390625,-96.0693359375,-96.1181640625,-96.8994140625,-97.8759765625,-98.8037109375,-100.3662109375,-101.2939453125,-102.5146484375,-103.4912109375,-104.6630859375,-106.3232421875,-107.0556640625,-107.5439453125,-109.1064453125,-110.5712890625,-112.2314453125,-113.2080078125,-114.6728515625,-113.5986328125,-111.2060546875,-107.9345703125,-104.0771484375,-101.8798828125,-99.3408203125,-97.0947265625,-95.9716796875,-96.0205078125,-96.9970703125,-96.8994140625,-97.2900390625,-97.1923828125,-97.0458984375,-98.0712890625,-98.9013671875,-99.7802734375,-101.6357421875,-103.1494140625,-103.2470703125,-104.7607421875,-106.3232421875,-107.2021484375,-107.8369140625,-108.8134765625,-110.2783203125,-111.4990234375,-113.1103515625,-114.4775390625,-114.6240234375,-112.6220703125,-109.1064453125,-106.1767578125,-102.9052734375,-100.7080078125,-98.7548828125,-96.9482421875,-98.0712890625,-98.0224609375,-98.0224609375,-97.6318359375,-97.4365234375,-97.9248046875,-98.8525390625,-99.3408203125,-100.8056640625,-101.7822265625,-102.8076171875,-103.9794921875,-105.1513671875,-106.6162109375,-106.8603515625,-108.4716796875,-108.6669921875,-110.4248046875,-111.6455078125,-112.8662109375,-114.0869140625,-114.1357421875,-113.3056640625,-109.5947265625,-106.6162109375,-103.4912109375,-100.6591796875,-97.9248046875,-97.2412109375,-96.0693359375,-97.1923828125,-96.7041015625,-96.3134765625,-96.5087890625,-96.7041015625,-96.9970703125,-98.0712890625,-99.0966796875,-99.7802734375,-101.4892578125,-102.3681640625,-103.5888671875,-104.6630859375,-105.8349609375,-107.2998046875,-107.5439453125,-108.0810546875,-110.1318359375,-111.2548828125,-112.6220703125,-113.4033203125,-112.4267578125,-109.5458984375,-106.5185546875,-103.1494140625,-100.9033203125,-97.8271484375,-95.6298828125,-94.6044921875,-94.6044921875,-95.6787109375,-95.1416015625,-95.5810546875,-95.1904296875,-95.0927734375,-95.8251953125,-97.6318359375,-98.6083984375,-99.9267578125,-100.0732421875,-102.0263671875,-103.1005859375,-104.4189453125,-105.4443359375,-106.7138671875,-107.3974609375,-109.0087890625,-109.8388671875,-111.8408203125,-113.0126953125,-113.5009765625,-112.2314453125,-108.5693359375,-104.9560546875,-101.8798828125,-99.4873046875,-97.0947265625,-95.2392578125,-95.1904296875,-95.8740234375,-96.3623046875,-96.1181640625,-95.8251953125,-96.4599609375,-96.5576171875,-98.2666015625,-99.1943359375,-100.4638671875,-101.7333984375,-102.6123046875,-103.9794921875,-104.9560546875,-106.2255859375,-106.6162109375,-108.1787109375,-108.8134765625,-110.4248046875,-111.9873046875,-112.7685546875,-113.6962890625,-112.8173828125,-110.6689453125,-107.0556640625,-104.2724609375,-101.9775390625,-99.7314453125,-97.8759765625,-96.8017578125,-97.0458984375,-97.3876953125,-97.4365234375,-96.9482421875,-97.4853515625,-96.9482421875,-98.5107421875,-99.2431640625,-100.4638671875,-101.3916015625,-102.6123046875,-104.1259765625,-105.1025390625,-105.7373046875,-107.3974609375,-107.6416015625,-109.0087890625,-110.6201171875,-111.9384765625,-113.0615234375,-114.3310546875,-114.0869140625,-111.6455078125,-108.0322265625,-105.3466796875,-102.2216796875,-99.8291015625,-98.0712890625,-95.8251953125,-95.9716796875,-96.2646484375,-96.5576171875,-95.6787109375,-96.1181640625,-96.6552734375,-96.8994140625,-97.4853515625,-97.8271484375,-99.9267578125,-100.8056640625,-102.0263671875,-102.8076171875,-103.7353515625,-104.6630859375,-105.4931640625,-106.4208984375,-107.1044921875,-108.6669921875,-110.2294921875,-111.4990234375,-111.1572265625,-109.8388671875,-105.9326171875,-102.6611328125,-99.6337890625,-97.3388671875,-95.2392578125,-93.7744140625,-93.0908203125,-93.3837890625,-93.0419921875,-93.3349609375,-93.4326171875,-93.7744140625,-94.0673828125,-94.9462890625,-96.0205078125,-97.0458984375,-98.0224609375,-98.7548828125,-100.4150390625,-101.3916015625,-102.4169921875,-104.1259765625,-104.4189453125,-105.2978515625,-106.8115234375,-107.9345703125,-109.5458984375,-110.0341796875,-109.3505859375,-106.6650390625,-103.3935546875,-100.5126953125,-97.5341796875,-95.2880859375,-93.2861328125,-92.5048828125,-92.4072265625,-92.9443359375,-92.8955078125,-92.1142578125,-92.8955078125,-93.4814453125,-94.2138671875,-94.5556640625,-96.2646484375,-97.4853515625,-97.8759765625,-99.6337890625,-100.4150390625,-101.1962890625,-102.4658203125,-103.5888671875,-104.5654296875,-105.8349609375,-107.1533203125,-108.4228515625,-109.3994140625,-109.8876953125,-107.4951171875,-104.3212890625,-101.2939453125,-98.2666015625,-96.3134765625,-93.9208984375,-91.8701171875,-92.6025390625,-93.2373046875,-92.7001953125,-92.8955078125,-93.2373046875,-93.0908203125,-93.5302734375,-94.6044921875,-95.9716796875,-97.5830078125,-98.3642578125,-99.2919921875,-101.0009765625,-101.8798828125,-102.5634765625,-103.9794921875,-105.1025390625,-105.8837890625,-107.1044921875,-108.5205078125,-109.6435546875,-111.2548828125,-110.0830078125,-107.2509765625,-103.7841796875,-100.8056640625,-98.5595703125,-95.6787109375,-93.8720703125,-93.5302734375,-94.1162109375,-94.1650390625,-93.8720703125,-93.6767578125,-94.1650390625,-94.8486328125,-95.3857421875,-96.8505859375,-97.4365234375,-98.8525390625,-100.0732421875,-100.8056640625,-102.4169921875,-103.1494140625,-104.0771484375,-105.4931640625,-106.7138671875,-107.2509765625,-108.5205078125,-109.8876953125,-111.3525390625,-112.4267578125,-111.3037109375,-108.9599609375,-105.5419921875,-102.5146484375,-100.6591796875,-98.3642578125,-96.8017578125,-95.1904296875,-95.5322265625,-96.1181640625,-95.6298828125,-95.6298828125,-95.4345703125,-96.6552734375,-96.9482421875,-98.0712890625,-99.0966796875,-99.8779296875,-100.5126953125,-101.3916015625,-102.7099609375,-104.1259765625,-104.8583984375,-105.9326171875,-106.5673828125,-107.7880859375,-108.8134765625,-110.1806640625,-111.7431640625,-111.7919921875,-111.0595703125,-108.2275390625,-105.1513671875,-102.7587890625,-99.7802734375,-98.3154296875,-96.8017578125,-96.5087890625,-96.6064453125,-97.0458984375,-96.8505859375,-96.5576171875,-96.9970703125,-96.8994140625,-97.7783203125,-99.2919921875,-100.2685546875,-101.4404296875,-102.0263671875,-103.1982421875,-104.0283203125,-105.2001953125,-106.6162109375,-107.6904296875,-108.4228515625,-108.5693359375,-110.3271484375,-111.7431640625,-113.2568359375,-113.7451171875,-111.8896484375,-109.7900390625,-106.2255859375,-103.4912109375,-101.0986328125,-99.5361328125,-97.6806640625,-96.9970703125,-96.8994140625,-97.7783203125,-97.2412109375,-97.2900390625,-96.5576171875,-97.9248046875,-97.8271484375,-98.9501953125,-100.1708984375,-100.9521484375,-101.9287109375,-103.1005859375,-104.3701171875,-105.0537109375,-106.5673828125,-106.9091796875,-108.4228515625,-109.3017578125,-110.3759765625,-112.1337890625,-112.7197265625,-114.1357421875,-114.5263671875,-112.3291015625,-108.9111328125,-105.4931640625,-102.5634765625,-101.0009765625,-98.4619140625,-97.2900390625,-97.3388671875,-97.9736328125,-98.2177734375,-97.4365234375,-97.2412109375,-97.7294921875,-98.1201171875,-99.1943359375,-100.1708984375,-100.5615234375,-101.8798828125,-102.3681640625,-103.9306640625,-105.6396484375,-105.7861328125,-106.7626953125,-107.6904296875,-108.2275390625,-109.5947265625,-111.0595703125,-111.9384765625,-112.9638671875,-113.8916015625,-111.8896484375,-108.8134765625,-105.5908203125,-102.6611328125,-100.5615234375,-98.7548828125,-97.0458984375,-96.8994140625,-96.9970703125,-97.5830078125,-97.3876953125,-97.0458984375,-97.3876953125,-97.8271484375,-98.5595703125,-98.8525390625,-99.6826171875,-101.0009765625,-102.0263671875,-102.3193359375,-104.2724609375,-104.6630859375,-105.6884765625,-106.4208984375,-107.4951171875,-108.5205078125,-109.1552734375,-110.2783203125,-112.0361328125,-112.4755859375,-111.5966796875,-108.4716796875,-105.2001953125,-102.6123046875,-99.5849609375,-98.2177734375,-96.1669921875,-95.6298828125,-96.1181640625,-96.1181640625,-96.1669921875,-95.5810546875,-95.9716796875,-96.6064453125,-96.5576171875,-97.9248046875,-98.9013671875,-100.0244140625,-100.8544921875,-102.0751953125,-101.9287109375,-104.0771484375,-103.8330078125,-104.8583984375,-105.5908203125,-106.6162109375,-107.4951171875,-107.8369140625,-109.6435546875,-110.3759765625,-108.9599609375,-107.2509765625,-103.6376953125,-100.1708984375,-97.4853515625,-95.1904296875,-93.6279296875,-91.8701171875,-91.9677734375,-92.1630859375,-92.6025390625,-92.0654296875,-92.7001953125,-92.7001953125,-93.1396484375,-93.3837890625,-94.1162109375,-95.3369140625,-96.3134765625,-97.3388671875,-98.7548828125,-99.8779296875,-100.2685546875,-101.3916015625,-101.8310546875,-103.1982421875,-104.2724609375,-105.7861328125,-106.0302734375,-107.9345703125,-108.3740234375,-106.4208984375,-104.0771484375,-100.7080078125,-98.0224609375,-95.7763671875,-93.4326171875,-92.1142578125,-91.4794921875,-91.9189453125,-92.2119140625,-92.4560546875,-92.7978515625,-91.9677734375,-92.5537109375,-93.7255859375,-94.6044921875,-95.3857421875,-96.7041015625,-97.0458984375,-98.3642578125,-99.8779296875,-99.8291015625,-101.4404296875,-102.2216796875,-103.1494140625,-103.9794921875,-104.8095703125,-106.4208984375,-107.7392578125,-108.7158203125,-108.7646484375,-106.1767578125,-103.9306640625,-100.2685546875,-99.0478515625,-96.1181640625,-94.9462890625,-93.8232421875,-93.1396484375,-93.9697265625,-93.6767578125,-93.9697265625,-94.0185546875,-94.4091796875,-95.1904296875,-96.0693359375,-96.9482421875,-98.0712890625,-99.2919921875,-100.0244140625,-100.9033203125,-101.8798828125,-103.3447265625,-104.4189453125,-105.2001953125,-105.7861328125,-107.3974609375,-108.2763671875,-109.9853515625,-111.1083984375,-110.6201171875,-109.4970703125,-106.5185546875,-103.8330078125,-101.1962890625,-98.9013671875,-96.4599609375,-95.4833984375,-94.8486328125,-95.4345703125,-95.2880859375,-94.9951171875,-94.9951171875,-95.3857421875,-96.4599609375,-96.1669921875,-97.0947265625,-97.9248046875,-99.0478515625,-100.0244140625,-101.1474609375,-100.9521484375,-103.0517578125,-103.8330078125,-104.0283203125,-105.3466796875,-106.4208984375,-107.2021484375,-109.3994140625,-109.0576171875,-109.0087890625,-107.6416015625,-104.5654296875,-101.3427734375,-98.5107421875,-95.4833984375,-93.7744140625,-92.5048828125,-91.8701171875,-92.6513671875,-92.7001953125,-92.6025390625,-92.0654296875,-92.1142578125,-92.1142578125,-93.3837890625,-94.1650390625,-95.2880859375,-96.2646484375,-97.3388671875,-98.5107421875,-99.0966796875,-99.8779296875,-100.5126953125,-101.3427734375,-101.9775390625,-103.2470703125,-104.4189453125,-105.9326171875,-107.0556640625,-106.3232421875,-103.8330078125,-100.9033203125,-97.7294921875,-95.7275390625,-93.1396484375,-91.0888671875,-89.7216796875,-89.8681640625,-90.2587890625,-90.6494140625,-90.0634765625,-90.0146484375,-90.4541015625,-91.1865234375,-92.3095703125,-92.9931640625,-94.4580078125,-94.9951171875,-96.1181640625,-97.0947265625,-98.1689453125,-99.6826171875,-100.3173828125,-101.3427734375,-102.1728515625,-103.2958984375,-105.3466796875,-105.9326171875,-105.2001953125,-103.6865234375,-100.2685546875,-97.0947265625,-94.7021484375,-92.5048828125,-90.1611328125,-88.8916015625,-88.8427734375,-89.2822265625,-89.0380859375,-88.8916015625,-89.1845703125,-89.5751953125,-90.3564453125,-91.1865234375,-92.2607421875,-93.2861328125,-94.3115234375,-95.4833984375,-96.6552734375,-98.1201171875,-98.8525390625,-100.0732421875,-100.7080078125,-102.4658203125,-104.1259765625,-104.9560546875,-106.1767578125,-105.3955078125,-103.5888671875,-99.8291015625,-96.6064453125,-94.1650390625,-91.6259765625,-89.3310546875,-88.2568359375,-88.4521484375,-89.4287109375,-89.0380859375,-89.1845703125,-88.6962890625,-88.6962890625,-90.1123046875,-90.8935546875,-91.7724609375,-93.1884765625,-94.4091796875,-95.4833984375,-96.8994140625,-98.0712890625,-98.9501953125,-99.3408203125,-101.0986328125,-102.0751953125,-103.9794921875,-104.7119140625,-106.1767578125,-105.3466796875,-102.3193359375,-99.0478515625,-96.3623046875,-94.1650390625,-91.7724609375,-89.5263671875,-88.3544921875,-89.6240234375,-90.4541015625,-89.6240234375,-89.5751953125,-90.5517578125,-91.1376953125,-91.5283203125,-93.0419921875,-94.1650390625,-94.8974609375,-96.1669921875,-96.8994140625,-98.3154296875,-100.0244140625,-100.4150390625,-101.7822265625,-102.4658203125,-103.7353515625,-104.7607421875,-106.5185546875,-107.2509765625,-106.5185546875,-105.0537109375,-101.1962890625,-98.3154296875,-95.3857421875,-92.8955078125,-90.8447265625,-89.8681640625,-90.1123046875,-90.4052734375,-90.3564453125,-89.9658203125,-89.7216796875,-90.5517578125,-91.7236328125,-92.9931640625,-93.6767578125,-95.1416015625,-96.3623046875,-96.8017578125,-98.5107421875,-99.2919921875,-101.0009765625,-102.0263671875,-103.1982421875,-104.5654296875,-105.5419921875,-106.7138671875,-108.0810546875,-107.0068359375,-106.2744140625,-102.9052734375,-99.8291015625,-96.9482421875,-94.4091796875,-92.1630859375,-90.3076171875,-90.9423828125,-91.5771484375,-91.2353515625,-90.9912109375,-90.7958984375,-92.0654296875,-92.1142578125,-93.3837890625,-94.7509765625,-96.1669921875,-97.7783203125,-98.6083984375,-100.7080078125,-101.7822265625,-103.0517578125,-103.9794921875,-105.0048828125,-105.6396484375,-107.4951171875,-108.6669921875,-110.3271484375,-111.4501953125,-110.3759765625,-108.0322265625,-104.8583984375,-100.9521484375,-98.8525390625,-96.3134765625,-93.4814453125,-92.5537109375,-92.8955078125,-93.4326171875,-92.9931640625,-92.4072265625,-92.6513671875,-93.3837890625,-94.5556640625,-95.5810546875,-96.6552734375,-98.1201171875,-99.2431640625,-100.6103515625,-101.8310546875,-102.9541015625,-103.5888671875,-105.1025390625,-106.0791015625,-107.1533203125,-108.6181640625,-109.5947265625,-111.3037109375,-112.9150390625,-112.0849609375,-110.1318359375,-106.9580078125,-103.3447265625,-99.7314453125,-97.2412109375,-95.2880859375,-93.2373046875,-92.9443359375,-93.9208984375,-93.5791015625,-93.5302734375,-93.3837890625,-93.8720703125,-94.9951171875,-95.6298828125,-96.1669921875,-98.2177734375,-98.9501953125,-100.5126953125,-101.4892578125,-103.0029296875,-103.4912109375,-104.9560546875,-105.5908203125,-107.4462890625,-108.5693359375,-109.7900390625,-110.5224609375,-111.8408203125,-111.2548828125,-109.3505859375,-105.6396484375,-102.6611328125,-99.4384765625,-96.1669921875,-94.4580078125,-92.9931640625,-93.0908203125,-92.9443359375,-93.3837890625,-93.0908203125,-93.3349609375,-94.2138671875,-94.3115234375,-95.6298828125,-96.9970703125,-98.0224609375,-99.9267578125,-100.8056640625,-102.3193359375,-103.7353515625,-105.1025390625,-105.7861328125,-106.5185546875,-107.9833984375,-109.6435546875,-111.2060546875,-112.6220703125,-113.4033203125,-112.0361328125,-109.9365234375,-104.8095703125,-101.0986328125,-98.7060546875,-95.7275390625,-93.1884765625,-92.5048828125,-93.1396484375,-93.3349609375,-92.8955078125,-93.2861328125,-93.5302734375,-94.5068359375,-95.1416015625,-96.5087890625,-97.1923828125,-99.1455078125,-100.3662109375,-101.0498046875,-102.1240234375,-103.9794921875,-105.0048828125,-106.2744140625,-107.2998046875,-108.5693359375,-109.5947265625,-111.2548828125,-113.0615234375,-112.2802734375,-111.3037109375,-107.6416015625,-103.2470703125,-100.3662109375,-97.1923828125,-94.7021484375,-92.7978515625,-91.8701171875,-92.9931640625,-92.6513671875,-92.2607421875,-92.7490234375,-92.3583984375,-93.3349609375,-94.7998046875,-95.4345703125,-97.0947265625,-98.3642578125,-99.6337890625,-101.8798828125,-102.3193359375,-102.6611328125,-105.0537109375,-105.3955078125,-107.6904296875,-108.2275390625,-109.1064453125,-111.9384765625,-111.7431640625,-110.8642578125,-108.2275390625,-104.4189453125,-100.8056640625,-98.6083984375,-94.9951171875,-93.2373046875,-91.7236328125,-91.8212890625,-93.2861328125,-92.4560546875,-92.1142578125,-92.3095703125,-93.3837890625,-94.5556640625,-95.1904296875,-96.8505859375,-97.7294921875,-98.8525390625,-99.3896484375,-101.5869140625,-102.6611328125,-103.5888671875,-105.0048828125,-106.6162109375,-107.3974609375,-109.3994140625,-111.0595703125,-112.0849609375,-111.5478515625,-109.3017578125,-105.8837890625,-102.0751953125,-98.9990234375,-95.6787109375,-93.8720703125,-91.9677734375,-92.4072265625,-93.7255859375,-92.8466796875,-92.7978515625,-93.1396484375,-93.4326171875,-94.4091796875,-95.6787109375,-96.6064453125,-97.4853515625,-99.7314453125,-100.7080078125,-102.0263671875,-103.3447265625,-104.3212890625,-105.3466796875,-105.8837890625,-107.5439453125,-108.6669921875,-110.6201171875,-111.8408203125,-112.2802734375,-110.7666015625,-107.8369140625,-103.1982421875,-100.7080078125,-96.9970703125,-93.9697265625,-92.6513671875,-91.0400390625,-91.9677734375,-91.9677734375,-91.5283203125,-90.7470703125,-91.4794921875,-92.5537109375,-93.3837890625,-94.9462890625,-96.3134765625,-97.0947265625,-98.5107421875,-100.0244140625,-101.5380859375,-102.1240234375,-103.1494140625,-104.0283203125,-105.6884765625,-107.2509765625,-108.7158203125,-109.6923828125,-110.9619140625,-110.4248046875,-108.4716796875,-104.2236328125,-100.4638671875,-97.5830078125,-94.7998046875,-92.5048828125,-91.7236328125,-91.8212890625,-92.5537109375,-92.6513671875,-92.2119140625,-93.1884765625,-93.0419921875,-95.0439453125,-95.7275390625,-97.4365234375,-98.2666015625,-99.4384765625,-100.9521484375,-102.1728515625,-103.0517578125,-103.7353515625,-104.8583984375,-106.2744140625,-108.0322265625,-108.8134765625,-110.6201171875,-111.9873046875,-111.8408203125,-110.3759765625,-106.4208984375,-103.1005859375,-99.5361328125,-96.3623046875,-94.3115234375,-92.1630859375,-92.0654296875,-92.5537109375,-92.6025390625,-92.5048828125,-92.6025390625,-92.7978515625,-94.0185546875,-94.8974609375,-95.7763671875,-97.0458984375,-98.5595703125,-100.0732421875,-100.9521484375,-102.7099609375,-104.1259765625,-105.0537109375,-106.4208984375,-107.6904296875,-108.8134765625,-109.8876953125,-111.6455078125,-111.9873046875,-111.1083984375,-108.1787109375,-103.8330078125,-100.5126953125,-96.4599609375,-94.2138671875,-92.2119140625,-90.9423828125,-91.9189453125,-92.1630859375,-91.3818359375,-91.9677734375,-91.9677734375,-92.7490234375,-94.3603515625,-94.9951171875,-96.5087890625,-97.5830078125,-99.1455078125,-100.5615234375,-101.7333984375,-103.4912109375,-104.6630859375,-106.0791015625,-106.9091796875,-108.4716796875,-109.8876953125,-111.0107421875,-113.0126953125,-113.5498046875,-113.3056640625,-109.7900390625,-106.3232421875,-102.4658203125,-99.6826171875,-96.8505859375,-94.0185546875,-92.8955078125,-93.9208984375,-94.1162109375,-94.4580078125,-93.8232421875,-93.7744140625,-94.9951171875,-96.3134765625,-96.6064453125,-98.9501953125,-100.2197265625,-101.4404296875,-103.3935546875,-104.6630859375,-106.0791015625,-107.2998046875,-108.3251953125,-109.7412109375,-110.3759765625,-112.2314453125,-113.9892578125,-115.1611328125,-116.1865234375,-115.7470703125,-112.6220703125,-108.8623046875,-105.7861328125,-101.9775390625,-100.2685546875,-97.9248046875,-97.1923828125,-98.0712890625,-98.5595703125,-98.5595703125,-98.4619140625,-98.9501953125,-98.9501953125,-99.9755859375,-101.4404296875,-103.2470703125,-104.4189453125,-105.7861328125,-106.7138671875,-108.7646484375,-110.0830078125,-110.3759765625,-112.1337890625,-113.1103515625,-114.1845703125,-115.8935546875,-118.1884765625,-119.4091796875,-118.8720703125,-118.0908203125,-114.5263671875,-111.0107421875,-108.1787109375,-105.0048828125,-102.9052734375,-100.9521484375,-101.1474609375,-102.0751953125,-101.8310546875,-101.7822265625,-101.1474609375,-101.3427734375,-102.2216796875,-103.4912109375,-104.1748046875,-105.8837890625,-106.6650390625,-108.4228515625,-109.5947265625,-110.4248046875,-111.7431640625,-112.5732421875,-113.9404296875,-115.1611328125,-115.9912109375,-117.0654296875,-118.2373046875,-119.9462890625,-120.1904296875,-118.9208984375,-115.2587890625,-111.2548828125,-108.4716796875,-105.5908203125,-103.1005859375,-101.4404296875,-101.3916015625,-102.3193359375,-102.7587890625,-101.9775390625,-101.9287109375,-102.4658203125,-103.4912109375,-103.6865234375,-104.4677734375,-106.0791015625,-106.3720703125,-108.5205078125,-109.4482421875,-110.4736328125,-111.7431640625,-112.7685546875,-113.6962890625,-114.6728515625,-115.2587890625,-116.8212890625,-117.9931640625,-119.6044921875,-120.4833984375,-120.2880859375,-117.6513671875,-113.8916015625,-110.3759765625,-107.6904296875,-105.0537109375,-103.0517578125,-101.7822265625,-102.4169921875,-102.8564453125,-102.6123046875,-102.8076171875,-102.3193359375,-102.7587890625,-103.4912109375,-104.1748046875,-105.4443359375,-106.3232421875,-107.7392578125,-109.2529296875,-109.9365234375,-110.8642578125,-111.8408203125,-112.8662109375,-113.7451171875,-114.4775390625,-115.6982421875,-117.1142578125,-118.4326171875,-119.3115234375,-119.9462890625,-118.0419921875,-115.0146484375,-111.2060546875,-108.2275390625,-105.5419921875,-103.3935546875,-101.7822265625,-101.3916015625,-102.6123046875,-102.9052734375,-102.1728515625,-101.7333984375,-101.9775390625,-102.6123046875,-103.4423828125,-104.4189453125,-105.7373046875,-106.4697265625,-107.6904296875,-108.6669921875,-109.3017578125,-110.7177734375,-111.4501953125,-112.7685546875,-113.4033203125,-114.4287109375,-115.4052734375,-117.5537109375,-118.5302734375,-119.2138671875,-117.6513671875,-114.1357421875,-110.5224609375,-107.2021484375,-104.4677734375,-102.7099609375,-101.1962890625,-100.0244140625,-100.7568359375,-101.4892578125,-100.2197265625,-100.7568359375,-100.9521484375,-100.9521484375,-102.1240234375,-102.7099609375,-103.7841796875,-104.5166015625,-105.6884765625,-107.1533203125,-108.2275390625,-108.7646484375,-109.9365234375,-111.3525390625,-111.9384765625,-112.7197265625,-114.4775390625,-115.4541015625,-116.7724609375,-118.1884765625,-117.4072265625,-114.2822265625,-110.5224609375,-107.3974609375,-104.5654296875,-102.1240234375,-99.6826171875,-98.9990234375,-99.0478515625,-99.9755859375,-99.9267578125,-99.8779296875,-99.5849609375,-100.1220703125,-100.8056640625,-101.3916015625,-103.0029296875,-104.0283203125,-105.0537109375,-105.4931640625,-106.6650390625,-107.9345703125,-109.5458984375,-110.2294921875,-110.8642578125,-111.5966796875,-112.8173828125,-113.5498046875,-114.9169921875,-116.6259765625,-117.0166015625,-115.4052734375,-112.1826171875,-109.1064453125,-106.3232421875,-102.9541015625,-101.3427734375,-99.8779296875,-99.0966796875,-99.7802734375,-99.6826171875,-99.3896484375,-99.5361328125,-99.5361328125,-100.0732421875,-101.2451171875,-102.1728515625,-103.6865234375,-103.8818359375,-105.7373046875,-106.4697265625,-107.5439453125,-108.6669921875,-110.4248046875,-111.3037109375,-111.9873046875,-113.5986328125,-114.1357421875,-114.7705078125,-116.9677734375,-118.3349609375,-117.6025390625,-116.1376953125,-112.0849609375,-109.2529296875,-106.7626953125,-104.3212890625,-102.7587890625,-101.0986328125,-100.9521484375,-101.5380859375,-101.0498046875,-100.6103515625,-101.3916015625,-101.0986328125,-102.4169921875,-102.6123046875,-104.0283203125,-104.6630859375,-105.9814453125,-107.6416015625,-107.6904296875,-109.9365234375,-110.3271484375,-111.6455078125,-112.6708984375,-113.4033203125,-114.3798828125,-115.5029296875,-116.8212890625,-117.7490234375,-118.9697265625,-117.5537109375,-115.9423828125,-112.4755859375,-109.5458984375,-106.1279296875,-104.3212890625,-102.2705078125,-100.7568359375,-100.9521484375,-101.7822265625,-101.4404296875,-101.0498046875,-100.9521484375,-101.7822265625,-102.3193359375,-103.1982421875,-104.4189453125,-105.5419921875,-106.6650390625,-107.6416015625,-108.5693359375,-109.1552734375,-110.3759765625,-111.5966796875,-112.3779296875,-113.3056640625,-114.2333984375,-115.6494140625,-117.3583984375,-117.8955078125,-117.9931640625,-117.1142578125,-113.8427734375,-110.2294921875,-107.3974609375,-104.4677734375,-103.0029296875,-101.4892578125,-100.2685546875,-101.2451171875,-101.3427734375,-100.7568359375,-100.6591796875,-100.8056640625,-100.7568359375,-101.4892578125,-102.7099609375,-102.8564453125,-104.8095703125,-105.1513671875,-106.2255859375,-106.9091796875,-107.4462890625,-108.5693359375,-109.2041015625,-110.1806640625,-111.3037109375,-112.5732421875,-113.7451171875,-115.1611328125,-115.8935546875,-114.7216796875,-111.8408203125,-108.0810546875,-105.0537109375,-102.2216796875,-99.7314453125,-97.5830078125,-97.3388671875,-96.9482421875,-97.2412109375,-96.7041015625,-96.4599609375,-96.8017578125,-96.2646484375,-97.8271484375,-98.4619140625,-99.2919921875,-100.5126953125,-101.4892578125,-102.4169921875,-102.8564453125,-104.4189453125,-105.3955078125,-106.4697265625,-107.0556640625,-108.3740234375,-109.3017578125,-110.3759765625,-111.7919921875,-111.9873046875,-110.0341796875,-107.0556640625,-103.1982421875,-100.4638671875,-97.7783203125,-95.3369140625,-92.9931640625,-92.8955078125,-93.4326171875,-93.0419921875,-92.8955078125,-92.4072265625,-93.3349609375,-93.2861328125,-93.9697265625,-95.3369140625,-96.3623046875,-96.9482421875,-97.8271484375,-100.1708984375,-100.1708984375,-100.7568359375,-102.2216796875,-103.3935546875,-104.7607421875,-105.6396484375,-107.3486328125,-107.9833984375,-109.3505859375,-109.3994140625,-106.4697265625,-103.2470703125,-100.5615234375,-96.9482421875,-94.5068359375,-92.3095703125,-91.1376953125,-91.7724609375,-92.4072265625,-92.3095703125,-91.2353515625,-91.6748046875,-92.5537109375,-93.2373046875,-93.6767578125,-95.0439453125,-95.9716796875,-97.4365234375,-98.0712890625,-99.0478515625,-100.5126953125,-101.7333984375,-102.2216796875,-103.1494140625,-104.3701171875,-105.5419921875,-107.0068359375,-108.4228515625,-108.5693359375,-107.0556640625,-104.2724609375,-101.1474609375,-98.2177734375,-96.2158203125,-93.6767578125,-92.7978515625,-91.4306640625,-92.2119140625,-92.7978515625,-92.5048828125,-92.7490234375,-92.4560546875,-93.4326171875,-94.3603515625,-94.6044921875,-96.9482421875,-97.8271484375,-98.0712890625,-100.0732421875,-100.5615234375,-101.8310546875,-103.1982421875,-103.3447265625,-104.8583984375,-106.7626953125,-107.1533203125,-108.9599609375,-108.9111328125,-107.0556640625,-104.7607421875,-102.0263671875,-98.8525390625,-96.4111328125,-93.8232421875,-92.5537109375,-91.6259765625,-92.7978515625,-92.5048828125,-92.2119140625,-92.9443359375,-93.1884765625,-93.6279296875,-94.7021484375,-95.2880859375,-96.4111328125,-98.4130859375,-99.6337890625,-100.1708984375,-101.8310546875,-102.2705078125,-104.0771484375,-104.5654296875,-105.8349609375,-107.0556640625,-108.1298828125,-109.9365234375,-110.1806640625,-108.8134765625,-106.8603515625,-103.3447265625,-100.5615234375,-97.1923828125,-95.0927734375,-92.6513671875,-91.9677734375,-92.8955078125,-92.7001953125,-92.2607421875,-92.2607421875,-92.6025390625,-93.2373046875,-93.5791015625,-95.2880859375,-95.9716796875,-97.3876953125,-98.9013671875,-99.1943359375,-100.5126953125,-101.5869140625,-102.7587890625,-104.3701171875,-105.0048828125,-106.3720703125,-107.3486328125,-109.2041015625,-109.8388671875,-110.3271484375,-108.3740234375,-105.4443359375,-102.1728515625,-98.4619140625,-96.5087890625,-93.8720703125,-92.9443359375,-92.6513671875,-93.5791015625,-92.9443359375,-93.1396484375,-93.1396484375,-93.1884765625,-94.1162109375,-95.0927734375,-95.2392578125,-96.4599609375,-97.7294921875,-98.8525390625,-100.2197265625,-101.4404296875,-102.4658203125,-103.1982421875,-104.0283203125,-105.2490234375,-106.7626953125,-108.2275390625,-109.0087890625,-110.0830078125,-108.9599609375,-106.1279296875,-102.3681640625,-98.9990234375,-96.7041015625,-93.7744140625,-92.3583984375,-91.3818359375,-91.9677734375,-92.0166015625,-91.7724609375,-91.5771484375,-91.8212890625,-93.1396484375,-93.6279296875,-94.0673828125,-96.4599609375,-97.5341796875,-97.9248046875,-99.6337890625,-100.9521484375,-102.0263671875,-103.1005859375,-103.6865234375,-105.4931640625,-105.9814453125,-107.7392578125,-108.9599609375,-110.1318359375,-110.5224609375,-108.5205078125,-105.4443359375,-101.9775390625,-98.2177734375,-96.0693359375,-93.2861328125,-91.1865234375,-91.2353515625,-92.2607421875,-92.6025390625,-92.5537109375,-91.9189453125,-92.6025390625,-93.3349609375,-94.4091796875,-95.1416015625,-96.6064453125,-98.0712890625,-98.9990234375,-100.1220703125,-101.2939453125,-102.2705078125,-104.0771484375,-104.4677734375,-105.9326171875,-106.5673828125,-108.5693359375,-110.5224609375,-110.7177734375,-110.6201171875,-108.0810546875,-105.0048828125,-101.1474609375,-97.6318359375,-95.0927734375,-92.4072265625,-91.4794921875,-92.0166015625,-92.5537109375,-91.8701171875,-91.9677734375,-91.7724609375,-93.5791015625,-93.7255859375,-94.7998046875,-96.2646484375,-97.0947265625,-98.3642578125,-99.5849609375,-101.2939453125,-102.1728515625,-103.4423828125,-104.3701171875,-105.2490234375,-106.7626953125,-108.1298828125,-109.0087890625,-111.0107421875,-111.4990234375,-109.4970703125,-106.5673828125,-102.7587890625,-100.1220703125,-97.2900390625,-94.5556640625,-92.9931640625,-92.7490234375,-93.7744140625,-93.0908203125,-92.9443359375,-93.7255859375,-93.5791015625,-94.7998046875,-95.7275390625,-97.6806640625,-98.5107421875,-99.1943359375,-101.3916015625,-102.3681640625,-103.7353515625,-104.9072265625,-106.1279296875,-107.2509765625,-108.8134765625,-109.3505859375,-111.4501953125,-112.1826171875,-114.4287109375,-112.9150390625,-110.6689453125,-107.6904296875,-103.6865234375,-101.3427734375,-97.9736328125,-96.4111328125,-95.7763671875,-95.6787109375,-96.6064453125,-95.9716796875,-95.5810546875,-96.2646484375,-96.7041015625,-98.4130859375,-98.4130859375,-100.1708984375,-101.3427734375,-102.6611328125,-103.6865234375,-104.8583984375,-106.0791015625,-106.8603515625,-107.5927734375,-109.8876953125,-110.6201171875,-112.2314453125,-113.1591796875,-114.3310546875,-115.8935546875,-114.7705078125,-112.5732421875,-108.5205078125,-105.6884765625,-102.7587890625,-99.5361328125,-97.8271484375,-96.4599609375,-96.9482421875,-97.5830078125,-96.6064453125,-96.3623046875,-96.8017578125,-97.1923828125,-98.2666015625,-99.2431640625,-100.6591796875,-101.9287109375,-102.8564453125,-103.8330078125,-105.7861328125,-106.6650390625,-107.1533203125,-108.6669921875,-110.6689453125,-110.4248046875,-111.5966796875,-113.4033203125,-114.2822265625,-115.8447265625,-115.7958984375,-113.9892578125,-111.3525390625,-107.3974609375,-104.5654296875,-102.0751953125,-99.8779296875,-97.6318359375,-97.7783203125,-98.6083984375,-98.5595703125,-97.4853515625,-98.3154296875,-97.9248046875,-98.9013671875,-99.8291015625,-100.3173828125,-101.6845703125,-103.0517578125,-103.5888671875,-105.6884765625,-105.9326171875,-106.7138671875,-108.4228515625,-109.0576171875,-109.7900390625,-111.5966796875,-112.4755859375,-114.4775390625,-115.6982421875,-116.1376953125,-114.2822265625,-112.1826171875,-108.3251953125,-105.1025390625,-102.2216796875,-99.8779296875,-97.7783203125,-97.1923828125,-98.2666015625,-98.3642578125,-97.5830078125,-97.1435546875,-96.9970703125,-98.0224609375,-98.9990234375,-100.1220703125,-101.3427734375,-102.1240234375,-103.1005859375,-103.9306640625,-105.0048828125,-106.9580078125,-107.4951171875,-108.3740234375,-108.6181640625,-109.3994140625,-111.5478515625,-111.9384765625,-113.9404296875,-114.5263671875,-114.2822265625,-112.3779296875,-109.0576171875,-105.2001953125,-102.1728515625,-99.7314453125,-97.8271484375,-96.6064453125,-96.1181640625,-96.7529296875,-96.7529296875,-96.6064453125,-96.9482421875,-97.1923828125,-96.8505859375,-98.0224609375,-99.3408203125,-99.9755859375,-100.9033203125,-102.2216796875,-103.4423828125,-103.9306640625,-105.8837890625,-105.9326171875,-107.1044921875,-108.1298828125,-108.8134765625,-109.6923828125,-111.7919921875,-112.4267578125,-112.8662109375,-112.5244140625,-110.0341796875,-106.3232421875,-103.5400390625,-100.1708984375,-97.6318359375,-95.5810546875,-94.1162109375,-94.3115234375,-95.2880859375,-95.3369140625,-94.8486328125,-94.6044921875,-95.0927734375,-95.8740234375,-97.2900390625,-97.9248046875,-98.8037109375,-99.8291015625,-100.6103515625,-101.8310546875,-102.7099609375,-104.3212890625,-105.1513671875,-105.7861328125,-106.9580078125,-107.5439453125,-108.4228515625,-109.8388671875,-111.5478515625,-111.0595703125,-110.7177734375,-107.5927734375,-103.9794921875,-101.0986328125,-98.8037109375,-96.8994140625,-94.7021484375,-94.0673828125,-95.0927734375,-95.5322265625,-94.9951171875,-94.1162109375,-95.0439453125,-94.4091796875,-95.1904296875,-96.2646484375,-96.7529296875,-98.1201171875,-98.4619140625,-99.6826171875,-100.7568359375,-101.1962890625,-101.6357421875,-102.5146484375,-103.6865234375,-104.2724609375,-105.5908203125,-106.6650390625,-107.6416015625,-109.0087890625,-107.9833984375,-105.8349609375,-102.7587890625,-99.5361328125,-96.4111328125,-94.2138671875,-92.5048828125,-90.4052734375,-90.7470703125,-91.8212890625,-91.8212890625,-91.8212890625,-91.3330078125,-91.8212890625,-92.3583984375,-92.5048828125,-93.3349609375,-94.6044921875,-95.3369140625,-95.9716796875,-97.7294921875,-97.4365234375,-99.3408203125,-99.8291015625,-100.6591796875,-101.8310546875,-102.8564453125,-103.1982421875,-104.7119140625,-105.5419921875,-105.9326171875,-105.8349609375,-103.5888671875,-100.2685546875,-97.4853515625,-95.0927734375,-92.6025390625,-91.0888671875,-90.0634765625,-90.7958984375,-90.9423828125,-91.1865234375,-90.6005859375,-90.7958984375,-91.6748046875,-92.3095703125,-92.9443359375,-93.7744140625,-95.0927734375,-96.0693359375,-97.4365234375,-97.8271484375,-99.5361328125,-100.1220703125,-101.5380859375,-101.7333984375,-103.3447265625,-104.0283203125,-105.1025390625,-106.4697265625,-107.3974609375,-108.0810546875,-106.9091796875,-104.9072265625,-101.0498046875,-98.7548828125,-96.7041015625,-94.5556640625,-93.5302734375,-93.0908203125,-93.5302734375,-93.6279296875,-93.2861328125,-93.0419921875,-93.9208984375,-93.7744140625,-94.1162109375,-95.3857421875,-95.8251953125,-96.7529296875
