PPG_subj_15,23,F,N,Non-diabetic,93,35.4635,Forehead,0.41015625,1.2158203125,0.3564453125,0.41015625,1.2158203125,0.3564453125,0.41015625,1.2158203125,0.3564453125,0.41015625,1.2158203125,0.3564453125,0.41015625,1.2158203125,0.3564453125,0.41015625,1.2158203125,0.3564453125,0.41015625,1.2158203125,0.3564453125,0.41015625,1.2158203125,0.3564453125,0.41015625,1.2158203125,0.3564453125,0.41015625,1.2158203125,0.3564453125,0.41015625,1.2158203125,0.3564453125,0.41015625,1.2158203125,0.3564453125,0.41015625,1.2158203125,0.3564453125,0.41015625,1.2158203125,0.3564453125,0.41015625,1.2158203125,0.3564453125,0.41015625,1.2158203125,0.3564453125,0.41015625,1.2158203125,0.3564453125,0.41015625,1.2158203125,0.3564453125,0.41015625,1.2158203125,0.3564453125,0.41015625,1.2158203125,0.3564453125,0.41015625,1.2158203125,0.3564453125,0.41015625,1.2158203125,0.3564453125,0.41015625,1.2158203125,0.3564453125,0.41015625,1.2158203125,0.3564453125,0.41015625,1.2158203125,0.3564453125,0.41015625,1.2158203125,0.3564453125,0.41015625,1.2158203125,0.3564453125,0.41015625,1.2158203125,0.3564453125,0.41015625,1.2158203125,0.3564453125,0.41015625,1.2158203125,0.3564453125,0.41015625,1.2158203125,0.3564453125,0.41015625,1.2158203125,0.3564453125,0.41015625,1.2158203125,0.3564453125,0.41015625,1.2158203125,0.3564453125,0.41015625,1.2158203125,0.3564453125,0.41015625,1.2158203125,0.3564453125,0.41015625,1.2158203125,0.3564453125,0.41015625,1.2158203125,0.3564453125,0.41015625,1.2158203125,0.3564453125,0.41015625,1.2158203125,0.3564453125,0.41015625,1.2158203125,0.3564453125,0.41015625,1.2158203125,0.3564453125,0.41015625,1.2158203125,0.3564453125,0.41015625,1.2158203125,0.3564453125,0.41015625,1.2158203125,0.3564453125,0.41015625,1.2158203125,0.3564453125,0.41015625,1.2158203125,0.3564453125,0.41015625,1.2158203125,0.3564453125,0.41015625,1.2158203125,0.3564453125,0.41015625,1.2158203125,0.3564453125,0.41015625,1.2158203125,0.3564453125,0.41015625,1.2158203125,0.3564453125,0.41015625,1.2158203125,0.3564453125,0.41015625,1.2158203125,0.3564453125,0.41015625,1.2158203125,0.3564453125,0.41015625,1.2158203125,0.3564453125,0.41015625,1.2158203125,0.3564453125,0.41015625,1.2158203125,78.3642578125,79.3896484375,80.4150390625,81.0009765625,80.8056640625,80.3173828125,80.1220703125,80.7568359375,80.3173828125,80.1708984375,79.5849609375,78.9990234375,77.5830078125,76.3623046875,75.6787109375,74.6044921875,75.3369140625,75.9228515625,75.9716796875,74.7021484375,73.3349609375,74.0673828125,76.2158203125,77.8759765625,79.9755859375,82.0751953125,84.6630859375,86.8115234375,86.3232421875,85.7373046875,84.9072265625,84.2724609375,83.2470703125,82.7587890625,81.2451171875,80.1708984375,79.3896484375,78.9990234375,77.7294921875,78.0224609375,76.6552734375,75.3369140625,74.5556640625,73.5302734375,72.6513671875,74.0185546875,77.1923828125,79.9755859375,82.3681640625,83.4912109375,83.8330078125,83.1005859375,82.2216796875,80.8544921875,80.6103515625,81.8798828125,83.0029296875,83.0029296875,81.8798828125,79.3896484375,77.5830078125,75.8740234375,76.0693359375,76.6552734375,76.8017578125,75.5810546875,73.2861328125,71.8701171875,70.9912109375,74.9951171875,78.9501953125,82.9052734375,85.9814453125,88.4228515625,87.3974609375,86.2255859375,84.8095703125,83.2470703125,82.8076171875,83.4423828125,84.3701171875,84.3212890625,84.5166015625,83.9306640625,82.9052734375,81.0009765625,79.0478515625,77.4365234375,75.7763671875,74.6533203125,74.2138671875,74.9951171875,77.5341796875,81.9287109375,85.2001953125,87.1044921875,88.2763671875,88.8134765625,89.0576171875,89.7412109375,89.0087890625,89.9365234375,89.5458984375,90.9619140625,91.7431640625,90.3759765625,88.9111328125,87.1533203125,85.7373046875,84.8583984375,83.7841796875,84.1259765625,83.3935546875,82.5634765625,81.2451171875,79.6826171875,78.5595703125,79.4873046875,82.3681640625,85.3955078125,86.7626953125,87.7392578125,88.7158203125,88.8623046875,88.4228515625,88.2763671875,87.6904296875,86.9580078125,86.9091796875,86.0791015625,85.5419921875,84.8095703125,84.4677734375,83.1005859375,81.9775390625,81.5380859375,79.5361328125,79.3408203125,78.1689453125,76.8505859375,75.4833984375,77.3388671875,80.7080078125,84.1748046875,86.2255859375,87.5439453125,88.7646484375,89.1064453125,88.9599609375,87.6416015625,87.1044921875,86.2744140625,86.4208984375,86.2744140625,85.4931640625,83.8330078125,83.1005859375,81.7822265625,81.4404296875,80.0732421875,79.4384765625,78.8037109375,77.6318359375,76.6064453125,75.1416015625,73.7744140625,75.6787109375,78.7548828125,82.0751953125,84.5654296875,85.8837890625,86.9580078125,87.4462890625,87.2509765625,87.3486328125,86.1767578125,86.0791015625,85.2490234375,85.0048828125,83.8330078125,82.9541015625,81.9287109375,81.1962890625,79.8779296875,78.9501953125,77.9736328125,76.7041015625,75.3369140625,74.5068359375,73.5791015625,73.6279296875,76.0693359375,78.9501953125,81.2451171875,82.1240234375,83.1494140625,84.2236328125,84.4677734375,84.1748046875,83.7353515625,82.0751953125,82.1728515625,81.3427734375,81.0009765625,79.6337890625,78.9013671875,77.6318359375,77.1923828125,75.7763671875,74.7021484375,73.8232421875,72.5048828125,72.1630859375,71.2353515625,70.6005859375,72.1630859375,74.8486328125,76.9482421875,78.1201171875,79.4384765625,79.9755859375,81.3916015625,80.5126953125,79.8291015625,78.9990234375,78.2666015625,77.9736328125,77.2900390625,76.4599609375,75.2392578125,75.2880859375,74.5556640625,73.2373046875,72.0654296875,70.7470703125,69.8193359375,68.8427734375,68.5986328125,67.6708984375,65.9619140625,66.2548828125,67.7197265625,70.2587890625,72.2607421875,73.4814453125,74.3603515625,74.7509765625,74.8974609375,74.6533203125,73.9697265625,73.6767578125,73.5791015625,73.2861328125,72.4560546875,72.0654296875,71.5283203125,70.5029296875,70.2587890625,69.1845703125,68.3544921875,67.7685546875,66.4990234375,65.8154296875,64.6923828125,64.2529296875,64.7900390625,67.3291015625,70.2099609375,72.0166015625,72.6513671875,73.8232421875,73.9208984375,74.7021484375,74.4091796875,73.1884765625,73.3349609375,73.7744140625,72.0166015625,72.0166015625,71.3818359375,70.5029296875,70.0634765625,68.7451171875,68.0126953125,66.7919921875,66.1572265625,65.2783203125,64.0087890625,63.9599609375,62.9833984375,62.3486328125,62.7880859375,64.8876953125,67.7685546875,70.1123046875,71.0888671875,72.9931640625,74.4091796875,74.7998046875,74.6533203125,74.3115234375,73.8720703125,73.3349609375,72.6025390625,72.7490234375,72.3583984375,71.1376953125,70.4052734375,69.9658203125,69.0869140625,68.1591796875,66.9873046875,66.2060546875,64.9853515625,64.4970703125,63.8623046875,62.3974609375,62.3974609375,60.8349609375,61.6162109375,63.7646484375,66.4501953125,69.5751953125,70.7470703125,71.8212890625,72.3583984375,73.2861328125,73.2373046875,72.6513671875,72.2119140625,72.0654296875,71.3818359375,70.7470703125,70.6005859375,69.9658203125,68.7939453125,68.3544921875,67.6708984375,66.4990234375,65.6689453125,64.6923828125,63.7646484375,63.3251953125,62.2509765625,61.5185546875,61.3232421875,59.8583984375,59.1748046875,59.1259765625,61.5185546875,63.7646484375,66.0595703125,66.9873046875,67.8173828125,69.0380859375,68.7939453125,68.8916015625,69.0380859375,67.8173828125,67.6220703125,67.8662109375,67.2314453125,66.9873046875,66.4013671875,65.6689453125,65.9130859375,64.8876953125,63.4716796875,62.7392578125,62.2509765625,61.6650390625,60.6884765625,60.5419921875,59.5654296875,59.1748046875,58.0517578125,58.8818359375,61.6162109375,63.9111328125,64.8388671875,66.2548828125,66.9873046875,67.1337890625,67.1826171875,66.7431640625,66.4990234375,66.7431640625,66.0595703125,65.4736328125,65.2783203125,64.9853515625,64.2041015625,63.7646484375,63.0810546875,62.4462890625,61.3720703125,60.6396484375,59.9072265625,59.9560546875,58.6865234375,58.5888671875,57.4658203125,57.1240234375,58.1005859375,59.9072265625,62.7392578125,64.6435546875,66.2060546875,67.1826171875,67.8173828125,68.8916015625,68.4521484375,68.0615234375,67.3779296875,67.4755859375,67.3779296875,66.3037109375,66.2548828125,66.4990234375,65.5712890625,64.6923828125,64.0087890625,63.3251953125,62.6904296875,61.1279296875,60.4443359375,59.7119140625,59.3212890625,59.0771484375,57.5634765625,56.8798828125,56.7333984375,56.8798828125,58.9794921875,62.2021484375,64.3017578125,65.3759765625,66.2060546875,67.2802734375,67.2314453125,68.5009765625,67.4755859375,66.9384765625,66.7919921875,67.0849609375,66.0595703125,66.0595703125,65.7666015625,65.3759765625,64.6435546875,63.8134765625,63.3740234375,61.9091796875,61.3720703125,60.8837890625,60.5908203125,59.1259765625,58.8330078125,57.7587890625,57.1240234375,56.9775390625,55.8056640625,56.0986328125,57.4658203125,59.7119140625,62.4462890625,63.7646484375,64.3017578125,66.4501953125,66.4990234375,66.8896484375,66.4990234375,66.4501953125,65.7666015625,66.0595703125,65.9619140625,65.6689453125,64.9853515625,64.2041015625,63.8623046875,63.4716796875,62.2021484375,61.3232421875,60.7373046875,60.3955078125,59.8095703125,59.2236328125,58.5888671875,57.9541015625,57.1240234375,56.6357421875,57.0751953125,58.5888671875,61.2744140625,62.6904296875,64.1064453125,64.3017578125,65.7177734375,65.8642578125,66.0107421875,65.1806640625,65.0341796875,64.9853515625,64.8876953125,64.8388671875,63.9599609375,63.6669921875,63.4228515625,62.2509765625,61.9091796875,61.1279296875,60.0537109375,59.4677734375,58.7841796875,58.3935546875,58.2470703125,57.7099609375,56.8310546875,57.0751953125,60.1513671875,62.4462890625,64.4482421875,66.1083984375,66.9384765625,68.3056640625,68.9404296875,69.0869140625,68.7939453125,68.5498046875,68.7451171875,68.8427734375,68.2080078125,67.9150390625,67.4267578125,66.3525390625,66.1572265625,64.3994140625,65.1806640625,62.9345703125,62.5439453125,62.3486328125,61.2255859375,60.9814453125,59.1748046875,58.7841796875,58.4423828125,57.5146484375,56.9287109375,59.3212890625,61.0302734375,63.8623046875,66.0107421875,67.7685546875,68.8427734375,69.8193359375,71.1376953125,70.8935546875,70.3564453125,70.0634765625,69.7216796875,69.7705078125,70.2099609375,68.7939453125,68.2568359375,67.6708984375,66.7431640625,66.2060546875,64.6435546875,64.2529296875,64.1064453125,62.8857421875,62.1044921875,61.4697265625,60.5908203125,60.0048828125,59.4189453125,58.4423828125,58.4912109375,58.4912109375,60.6396484375,63.7158203125,65.3759765625,66.1083984375,67.2314453125,68.2568359375,68.7451171875,68.7939453125,68.2080078125,67.9150390625,68.3056640625,68.3544921875,67.7685546875,67.3291015625,66.6943359375,66.5478515625,66.0595703125,64.7412109375,64.6923828125,63.7158203125,62.5439453125,62.4951171875,61.6162109375,61.4208984375,60.1025390625,59.1748046875,58.6376953125,58.5400390625,60.5419921875,63.5693359375,65.1318359375,66.4501953125,67.4267578125,68.6962890625,68.8427734375,68.3544921875,68.1591796875,68.6474609375,68.4033203125,68.5498046875,67.9150390625,67.5244140625,66.9873046875,66.1083984375,66.3037109375,64.7412109375,64.5947265625,63.1787109375,62.5439453125,61.9580078125,61.5185546875,59.8095703125,60.1025390625,58.9306640625,59.0771484375,59.8095703125,62.2998046875,65.2783203125,66.7431640625,68.4521484375,70.9912109375,72.4072265625,72.2607421875,72.4560546875,72.4072265625,71.8701171875,72.3583984375,72.2607421875,71.3330078125,71.1376953125,70.6982421875,69.7216796875,69.3310546875,68.5498046875,67.5244140625,67.2802734375,66.4013671875,66.0107421875,65.9619140625,64.2529296875,63.3251953125,62.7392578125,61.6650390625,61.0302734375,60.5908203125,62.1044921875,65.4248046875,67.5244140625,70.2099609375,71.7236328125,73.7744140625,74.7509765625,75.4345703125,74.9462890625,75.1904296875,74.9951171875,75.2392578125,74.5556640625,74.5068359375,73.3349609375,72.8466796875,72.6025390625,71.2353515625,70.7470703125,69.9169921875,68.9404296875,68.3056640625,67.7197265625,67.3291015625,66.0107421875,65.6201171875,64.9853515625,63.7646484375,62.4462890625,62.0556640625,63.2763671875,65.2783203125,67.7685546875,70.0146484375,71.0400390625,72.1630859375,73.6279296875,74.2138671875,74.3115234375,73.5791015625,73.8232421875,73.6767578125,73.3349609375,73.6279296875,73.3837890625,72.3095703125,71.4794921875,70.8935546875,70.5517578125,69.9169921875,68.6962890625,68.4033203125,67.5244140625,67.2314453125,65.7666015625,65.2294921875,64.5458984375,64.7900390625,66.0595703125,69.1357421875,71.7724609375,73.4326171875,73.8720703125,76.0205078125,77.3876953125,77.2900390625,77.3876953125,76.4111328125,76.8017578125,76.4599609375,76.3134765625,75.6787109375,75.5810546875,74.5068359375,73.6767578125,72.9443359375,72.0654296875,71.3330078125,70.4541015625,69.5751953125,68.8427734375,67.9638671875,67.6708984375,66.4501953125,65.6689453125,64.7412109375,63.8623046875,64.4482421875,66.2060546875,69.7216796875,72.1142578125,74.5068359375,75.5810546875,77.8759765625,78.8037109375,79.1455078125,79.1943359375,78.9013671875,78.5107421875,78.9501953125,78.2666015625,77.9248046875,77.5341796875,76.6552734375,75.8740234375,74.8486328125,73.8232421875,72.2607421875,71.9189453125,71.0400390625,69.6728515625,69.3798828125,68.6474609375,67.4755859375,66.6943359375,65.0830078125,64.7412109375,63.8623046875,63.0322265625,63.4716796875,65.5712890625,68.7939453125,71.2841796875,72.3583984375,73.8232421875,75.4345703125,76.8505859375,76.5087890625,75.8740234375,75.4833984375,74.8486328125,74.9951171875,74.9951171875,73.9697265625,72.9931640625,73.6767578125,71.9189453125,71.1376953125,70.6494140625,69.1845703125,68.3056640625,67.7197265625,67.1826171875,66.8896484375,64.6923828125,64.5947265625,64.2529296875,62.8369140625,63.5693359375,65.9619140625,68.9892578125,70.7470703125,72.1630859375,73.1396484375,74.0673828125,74.6044921875,73.9697265625,73.4326171875,73.5791015625,72.7490234375,72.9443359375,72.0166015625,72.0166015625,70.6005859375,69.8681640625,69.3798828125,68.3056640625,67.7685546875,66.6943359375,65.7666015625,64.8876953125,63.9111328125,63.2275390625,62.4462890625,61.6650390625,60.0537109375,60.0048828125,61.4208984375,64.2041015625,66.9873046875,69.0869140625,71.0400390625,72.1630859375,73.4326171875,74.3603515625,73.9697265625,74.0185546875,73.9697265625,73.4814453125,73.9697265625,72.8955078125,72.2607421875,71.3818359375,70.3564453125,69.3798828125,68.9404296875,68.0615234375,67.4267578125,66.3037109375,65.7666015625,64.7900390625,63.8623046875,62.7880859375,61.6650390625,61.3720703125,60.2001953125,59.3212890625,59.0283203125,58.5888671875,61.0302734375,64.8388671875,66.9384765625,67.6220703125,69.6240234375,71.1865234375,71.7236328125,72.2607421875,71.3818359375,71.0400390625,70.8935546875,70.3564453125,70.6982421875,70.3564453125,69.2333984375,68.6474609375,68.3544921875,66.7919921875,65.3271484375,65.3759765625,63.9111328125,63.3740234375,62.5927734375,61.9091796875,61.2255859375,60.3466796875,59.8095703125,58.8818359375,59.3212890625,59.6142578125,62.2998046875,65.0830078125,66.6455078125,67.3291015625,68.4521484375,69.1845703125,68.5009765625,68.7451171875,68.4033203125,68.4521484375,68.2568359375,67.4755859375,66.9873046875,66.8408203125,65.6689453125,65.4248046875,64.4482421875,63.6669921875,62.5927734375,62.0556640625,60.8837890625,60.2001953125,59.4189453125,58.2958984375,57.8076171875,57.6611328125,58.2470703125,61.1279296875,64.0576171875,65.7666015625,67.2802734375,68.9892578125,69.9658203125,70.3564453125,69.8681640625,69.4287109375,69.4775390625,68.5986328125,69.0380859375,68.4033203125,68.1103515625,66.5478515625,66.0107421875,65.7666015625,64.7900390625,64.1552734375,62.8857421875,61.9580078125,61.5673828125,60.1513671875,59.8095703125,58.5888671875,58.0517578125,56.9287109375,56.2451171875,55.5615234375,58.2470703125,60.9814453125,63.1787109375,65.2783203125,66.7919921875,68.1591796875,68.9892578125,69.9169921875,69.1845703125,68.9404296875,68.6474609375,68.6474609375,68.4521484375,67.6708984375,66.9873046875,66.4013671875,65.5224609375,64.8388671875,63.9111328125,63.0322265625,61.9580078125,61.7626953125,60.5419921875,59.5166015625,58.9794921875,57.8564453125,56.7333984375,56.7822265625,56.1474609375,54.8291015625,55.8056640625,58.9306640625,62.1044921875,63.7158203125,64.8388671875,65.9130859375,67.1337890625,66.9384765625,67.0849609375,65.8154296875,65.5224609375,66.1083984375,65.0830078125,64.7412109375,64.7900390625,63.6181640625,63.3251953125,62.6904296875,61.5673828125,61.0791015625,60.0537109375,59.0771484375,58.7841796875,58.2470703125,57.3193359375,56.5869140625,55.4638671875,57.1728515625,59.8095703125,62.2998046875,63.5693359375,64.5947265625,66.0107421875,67.0849609375,66.6455078125,65.7666015625,66.1083984375,65.7666015625,65.9130859375,65.5712890625,64.9853515625,64.5947265625,63.1787109375,62.7880859375,62.5927734375,60.9814453125,60.4931640625,59.8583984375,58.6376953125,57.7587890625,57.0263671875,56.2939453125,55.0732421875,54.5849609375,53.9501953125,55.4150390625,58.6376953125,61.3232421875,63.6181640625,65.6689453125,66.6455078125,67.7685546875,68.4033203125,67.8662109375,69.0869140625,68.3544921875,67.9638671875,67.6708984375,67.4755859375,66.8896484375,65.8154296875,65.2294921875,64.6435546875,64.3017578125,62.2509765625,61.4208984375,60.8349609375,60.3955078125,58.5888671875,58.2470703125,57.7099609375,56.2939453125,55.9033203125,54.5849609375,53.9501953125,55.9521484375,58.4912109375,61.4208984375,63.4228515625,64.8876953125,66.7919921875,67.5732421875,68.3544921875,68.5986328125,67.9150390625,67.5732421875,67.1826171875,67.6708984375,66.6943359375,66.6943359375,65.1806640625,64.2041015625,63.7646484375,62.4951171875,62.1044921875,60.5908203125,60.1025390625,58.9794921875,59.0283203125,58.1982421875,57.0751953125,56.3916015625,55.6591796875,54.7802734375,53.4130859375,53.2666015625,53.6083984375,56.4404296875,58.6865234375,60.6396484375,61.8603515625,63.0810546875,64.3017578125,64.0087890625,63.8134765625,64.0576171875,63.0810546875,63.0322265625,62.9345703125,62.7880859375,62.2998046875,61.7626953125,60.9326171875,60.3466796875,59.5654296875,58.7353515625,58.3447265625,57.3681640625,56.4892578125,56.1474609375,55.2685546875,54.1943359375,53.8525390625,53.1689453125,54.1943359375,56.0986328125,58.8818359375,60.5908203125,61.9091796875,62.3974609375,64.1552734375,64.8876953125,63.8623046875,64.2529296875,63.4228515625,63.3740234375,63.4228515625,62.8857421875,62.1044921875,61.6162109375,61.2744140625,60.5419921875,58.9794921875,58.4912109375,57.3681640625,56.6357421875,55.8056640625,55.6103515625,54.5849609375,53.6572265625,53.0224609375,52.7783203125,51.5087890625,50.4833984375,50.7763671875,53.1201171875,56.3916015625,58.3935546875,59.5654296875,61.5185546875,62.7392578125,63.6669921875,64.4482421875,63.8623046875,62.7392578125,62.7392578125,62.6416015625,62.2021484375,61.3720703125,61.0791015625,60.0537109375,59.5166015625,58.5400390625,57.9541015625,56.6845703125,55.2197265625,55.4638671875,54.1943359375,53.7548828125,53.3154296875,51.6064453125,51.6064453125,50.4833984375,49.6533203125,48.5791015625,50.1904296875,52.5830078125,55.0244140625,57.1728515625,58.3447265625,59.5166015625,60.6884765625,61.4208984375,61.3232421875,60.7861328125,60.5908203125,59.6630859375,60.2978515625,59.7607421875,59.1748046875,58.8330078125,58.1005859375,56.9775390625,56.0009765625,55.5126953125,54.2919921875,53.8525390625,53.6083984375,52.0458984375,50.8251953125,50.6787109375,49.6533203125,48.8720703125,48.3349609375,48.1396484375,49.9462890625,52.1435546875,54.3408203125,54.9755859375,55.9521484375,57.2216796875,57.4169921875,58.2470703125,57.3193359375,56.6357421875,57.3193359375,56.7333984375,56.7333984375,55.9033203125,55.6103515625,54.9755859375,54.7802734375,53.8037109375,53.3154296875,52.5341796875,51.6064453125,50.7275390625,50.0927734375,50.0439453125,48.8232421875,47.9443359375,47.4560546875,46.8212890625,47.8466796875,50.8251953125,53.9013671875,55.1220703125,56.5380859375,57.8564453125,58.6376953125,60.0048828125,59.2236328125,59.6142578125,59.1259765625,58.7353515625,58.5888671875,57.7587890625,57.6611328125,57.0263671875,56.9775390625,55.9033203125,55.0732421875,54.1455078125,53.7548828125,52.5341796875,51.9482421875,51.5087890625,50.3857421875,49.9462890625,49.2138671875,48.3349609375,48.2373046875,47.2119140625,48.6279296875,51.3623046875,54.0966796875,55.7568359375,57.1240234375,58.9306640625,59.6630859375,60.7861328125,60.2001953125,59.9072265625,59.8095703125,59.5166015625,59.1259765625,58.8818359375,58.7353515625,57.8564453125,57.0263671875,56.2451171875,55.1708984375,54.3408203125,53.5595703125,53.1689453125,51.8017578125,51.1181640625,51.0205078125,49.7509765625,48.7744140625,47.4560546875,47.0654296875,47.2119140625,46.2841796875,46.4794921875,48.0908203125,50.4833984375,52.8759765625,53.9990234375,55.2197265625,56.0986328125,56.3916015625,57.2705078125,56.9775390625,56.0009765625,56.3916015625,55.7080078125,55.6591796875,55.4638671875,54.1943359375,54.5361328125,53.6572265625,53.2666015625,52.0458984375,51.5576171875,50.4833984375,49.8974609375,49.1162109375,49.0673828125,48.0908203125,47.5048828125,46.6748046875,45.7470703125,46.5283203125,49.5556640625,51.5087890625,53.4130859375,54.3896484375,54.4873046875,55.6103515625,56.5380859375,56.1962890625,55.8056640625,55.6103515625,55.2685546875,54.9755859375,54.4384765625,54.0478515625,53.5107421875,52.7294921875,52.2900390625,51.2158203125,50.7763671875,49.6533203125,49.1162109375,48.3349609375,47.8466796875,47.2119140625,46.2353515625,44.9658203125,44.6728515625,44.0380859375,46.1376953125,48.1396484375,51.1181640625,52.4853515625,53.7060546875,55.4150390625,56.1474609375,56.8798828125,56.8798828125,56.7822265625,56.9775390625,56.1474609375,56.1962890625,56.7822265625,55.1708984375,55.1708984375,53.9013671875,53.1689453125,52.8759765625,52.0947265625,50.7275390625,50.3369140625,49.5068359375,48.8720703125,48.0908203125,47.3095703125,46.5283203125,46.3818359375,45.0146484375,44.6728515625,45.6005859375,48.0419921875,50.9228515625,52.7783203125,53.7548828125,55.3662109375,56.7333984375,57.1728515625,57.4658203125,56.8798828125,57.0263671875,56.2939453125,56.4892578125,55.7080078125,55.2197265625,54.0966796875,53.9501953125,52.8271484375,51.9970703125,51.9482421875,50.1904296875,49.8974609375,48.5791015625,48.0908203125,47.6513671875,46.5771484375,46.2841796875,45.6494140625,44.7705078125,44.5751953125,43.9404296875,46.0888671875,48.2861328125,50.7275390625,52.1923828125,53.4619140625,53.3642578125,53.9990234375,54.2919921875,53.7548828125,53.8525390625,53.5595703125,53.4130859375,53.3642578125,52.6318359375,51.8505859375,51.8994140625,50.6298828125,50.3369140625,49.4580078125,48.9208984375,47.7001953125,47.5048828125,46.2841796875,46.2841796875,44.7705078125,44.2333984375,44.0869140625,44.6240234375,47.3583984375,50.1904296875,52.0458984375,52.7294921875,53.5107421875,54.8291015625,54.7802734375,54.8779296875,54.3896484375,54.3408203125,54.3408203125,53.4130859375,52.9736328125,53.0224609375,52.5830078125,51.9970703125,51.3623046875,50.4833984375,49.4580078125,48.4326171875,48.2373046875,47.4560546875,46.0888671875,45.9912109375,45.6982421875,44.6240234375,43.8916015625,44.3798828125,45.4052734375,48.6279296875,50.9228515625,52.7783203125,54.0478515625,55.5126953125,56.3916015625,56.9775390625,56.5869140625,56.0986328125,55.7568359375,55.9033203125,56.3916015625,55.6591796875,54.9267578125,54.4873046875,53.0712890625,52.4853515625,52.1923828125,51.1181640625,50.0439453125,49.5556640625,48.8232421875,48.0419921875,47.2119140625,46.2353515625,45.7958984375,44.9169921875,44.4775390625,43.3056640625,43.2080078125,45.1123046875,47.7490234375,50.3369140625,51.8017578125,53.5595703125,54.8291015625,55.5126953125,56.1474609375,55.4638671875,55.4638671875,54.9755859375,54.6826171875,55.0732421875,53.9013671875,53.4130859375,53.4130859375,52.3876953125,51.0205078125,50.5810546875,49.7021484375,48.9697265625,48.1884765625,48.0419921875,46.5771484375,45.6494140625,45.2099609375,44.4775390625,43.5986328125,43.1591796875,42.4755859375,42.6220703125,43.6474609375,46.7236328125,48.1396484375,49.5068359375,50.0927734375,51.1181640625,51.7041015625,51.8017578125,51.4111328125,51.5576171875,51.0205078125,51.3134765625,50.4833984375,50.2392578125,50.2392578125,49.4580078125,48.9208984375,48.0419921875,47.0654296875,46.2841796875,45.8447265625,44.8193359375,44.8193359375,43.6962890625,42.9638671875,42.7197265625,42.1337890625,41.6455078125,42.2802734375,44.6728515625,47.2119140625,49.0673828125,49.8486328125,50.4833984375,51.8994140625,52.6806640625,52.0947265625,51.8994140625,51.7041015625,51.3623046875,51.0205078125,50.7763671875,49.6044921875,48.8232421875,48.0419921875,47.8955078125,46.8701171875,46.3818359375,45.8935546875,44.3798828125,44.1357421875,43.5009765625,43.1591796875,42.4267578125,41.3525390625,40.5224609375,39.7900390625,39.3505859375,40.3271484375,42.6220703125,44.9658203125,47.2119140625,48.6767578125,50.0927734375,50.5322265625,51.2158203125,51.6064453125,51.0693359375,50.7275390625,50.4345703125,50.1904296875,50.4833984375,49.5556640625,49.0185546875,47.9931640625,47.2607421875,47.0654296875,46.3330078125,44.8681640625,44.1357421875,43.2568359375,42.5244140625,41.6943359375,41.3037109375,40.4736328125,39.9853515625,39.1064453125,39.8388671875,38.7158203125,40.2783203125,42.9638671875,44.2822265625,45.8935546875,46.4306640625,47.3583984375,48.0908203125,48.2861328125,47.7490234375,47.0166015625,47.5048828125,47.3095703125,46.7236328125,46.2353515625,45.9912109375,44.4775390625,44.6728515625,43.8916015625,43.3056640625,42.6220703125,42.5244140625,41.4013671875,40.4736328125,40.2783203125,39.5947265625,39.1064453125,38.2763671875,39.0087890625,41.0107421875,43.4521484375,45.3564453125,46.3818359375,47.3095703125,48.3349609375,49.7021484375,48.7744140625,48.1884765625,48.1396484375,47.9931640625,48.4814453125,47.6025390625,47.0654296875,46.6748046875,45.9423828125,45.0634765625,44.6728515625,44.0380859375,43.1591796875,42.1826171875,41.4990234375,40.6201171875,39.9853515625,39.7412109375,39.0087890625,37.8857421875,37.8857421875,38.5205078125,40.9619140625,43.1103515625,45.7470703125,47.2119140625,48.8720703125,50.2392578125,51.0693359375,51.1669921875,50.9716796875,51.1181640625,50.7275390625,50.1904296875,50.2880859375,50.0927734375,49.2626953125,49.3603515625,48.6767578125,47.4072265625,46.7236328125,46.0888671875,45.4052734375,44.4775390625,44.3310546875,43.8916015625,42.3291015625,41.5478515625,41.2548828125,39.6923828125,39.3505859375,40.3759765625,41.9384765625,44.7705078125,47.6513671875,48.4814453125,49.7998046875,50.9228515625,51.8505859375,52.7783203125,52.0458984375,51.4111328125,51.5087890625,51.6064453125,51.0693359375,50.9716796875,50.8251953125,50.9228515625,49.4580078125,48.9208984375,48.2861328125,47.0654296875,46.9677734375,45.9912109375,45.1611328125,44.5263671875,44.5263671875,43.5986328125,42.8662109375,43.5498046875,45.9423828125,48.6279296875,50.3857421875,51.5087890625,52.7783203125,53.1201171875,53.8525390625,53.7548828125,53.6083984375,53.8525390625,52.8759765625,53.3642578125,53.1201171875,53.3642578125,52.0458984375,51.6064453125,51.5087890625,50.3369140625,50.0439453125,48.4814453125,48.2373046875,47.1142578125,46.6748046875,46.2841796875,45.2099609375,44.8681640625,44.5751953125,46.9677734375,50.2880859375,52.7294921875,54.1455078125,55.8544921875,57.3193359375,58.4912109375,58.9306640625,58.3935546875,58.6376953125,59.0283203125,59.0771484375,58.4912109375,57.7587890625,57.2216796875,56.6845703125,55.4150390625,55.5126953125,54.6337890625,53.7060546875,53.0712890625,52.6806640625,51.5576171875,50.3857421875,49.7509765625,48.8232421875,48.1884765625,47.6025390625,46.4306640625,45.6005859375,45.4052734375,46.6748046875,50.1416015625,52.7783203125,55.1220703125,56.6357421875,58.4423828125,59.8583984375,60.7373046875,60.1513671875,60.0048828125,59.5166015625,59.6142578125,59.5654296875,59.0771484375,58.8818359375,57.7099609375,57.1728515625,56.9287109375,55.3662109375,55.0244140625,53.7060546875,52.9736328125,52.1435546875,51.0205078125,49.9462890625,49.2138671875,48.7744140625,47.2119140625,46.7724609375,46.4306640625,46.2353515625,48.3349609375,51.8017578125,54.2431640625,55.3662109375,55.7568359375,57.1240234375,58.3935546875,57.9541015625,57.6123046875,57.6123046875,57.2216796875,57.7099609375,57.0263671875,56.2939453125,55.6591796875,55.5615234375,54.3896484375,53.6572265625,53.1689453125,52.3876953125,51.3134765625,50.8251953125,50.2880859375,49.1650390625,48.3349609375,47.7001953125,46.7236328125,45.8447265625,48.1396484375,52.0947265625,54.0966796875,55.7080078125,57.1240234375,57.6611328125,59.1259765625,59.5654296875,59.5654296875,58.7841796875,58.8818359375,58.3935546875,59.1259765625,57.8564453125,57.2216796875,57.0263671875,56.0009765625,54.7314453125,53.5595703125,52.8271484375,51.3623046875,51.1669921875,50.3857421875,49.2138671875,48.5791015625,47.8955078125,46.3818359375,44.9169921875,45.0146484375,44.1845703125,44.1357421875,46.8701171875,50.3369140625,52.8759765625,54.1943359375,55.8056640625,57.7587890625,58.8330078125,58.5888671875,58.6376953125,57.9541015625,56.8310546875,56.8798828125,56.9775390625,56.0009765625,55.1708984375,55.1708984375,54.1943359375,53.4130859375,52.4365234375,51.3623046875,50.5810546875,49.5556640625,48.4326171875,47.1630859375,45.9912109375,45.5029296875,44.2822265625,43.1103515625,42.4755859375,41.6455078125,41.6943359375,40.3759765625,40.3271484375,42.1826171875,45.1123046875,48.2861328125,49.5068359375,50.3857421875,51.8505859375,53.1201171875,52.4365234375,52.4853515625,51.7529296875,51.5576171875,51.0693359375,50.9228515625,50.6787109375,49.7021484375,48.8720703125,48.1884765625,47.8466796875,47.1630859375,45.6982421875,44.6240234375,44.2822265625,43.2080078125,42.3779296875,41.4990234375,40.9619140625,40.1806640625,39.3994140625,38.6669921875,38.8623046875,39.7412109375,41.9384765625,44.6728515625,45.8935546875,47.1142578125,47.1142578125,47.8466796875,48.1884765625,47.6025390625,47.7978515625,47.1142578125,47.1630859375,46.8701171875,46.6259765625,45.7470703125,45.2099609375,44.0869140625,43.4033203125,42.4755859375,41.8408203125,41.5478515625,40.7666015625,39.3505859375,38.8623046875,37.9345703125,37.6904296875,37.3486328125,36.4208984375,35.7373046875,38.1298828125,41.5478515625,43.3544921875,44.7705078125,45.6982421875,46.8701171875,47.8466796875,47.6513671875,47.7978515625,46.9189453125,47.0166015625,46.7236328125,46.6748046875,45.7958984375,45.3564453125,44.4775390625,44.0869140625,42.6708984375,42.0849609375,41.2060546875,40.7177734375,39.7412109375,39.1552734375,37.9345703125,37.7392578125,36.6650390625,36.4697265625,35.6396484375,34.6630859375,34.0283203125,36.0791015625,38.9599609375,41.4013671875,43.5986328125,44.2822265625,45.2587890625,46.6748046875,47.6513671875,46.9189453125,46.5283203125,45.9423828125,45.7958984375,45.6494140625,45.3564453125,44.5751953125,44.3798828125,43.4033203125,42.5244140625,41.6943359375,41.1083984375,39.4970703125,39.3994140625,39.1552734375,37.8857421875,37.2021484375,36.7626953125,35.6396484375,35.2490234375,34.7607421875,33.7353515625,33.1494140625,34.3212890625,36.5185546875,38.9111328125,40.4736328125,41.9384765625,43.3544921875,43.5498046875,44.0869140625,43.6962890625,43.1103515625,43.1591796875,42.8662109375,42.4267578125,42.5244140625,41.7919921875,41.4501953125,41.2060546875,40.1806640625,39.6923828125,38.5205078125,38.0810546875,37.6416015625,36.9091796875,36.2255859375,35.2001953125,34.5166015625,34.1748046875,34.0283203125,34.5166015625,36.8603515625,39.7412109375,40.6201171875,41.6455078125,43.1591796875,43.4521484375,43.8916015625,43.5986328125,43.3544921875,43.0126953125,42.7685546875,42.4755859375,41.9873046875,41.8896484375,41.0107421875,40.5224609375,40.2294921875,38.8623046875,38.1787109375,37.7880859375,37.0556640625,36.1279296875,35.4931640625,35.6884765625,35.1513671875,34.1748046875,33.7841796875,35.2490234375,38.8623046875,41.2548828125,42.9150390625,43.9892578125,45.6005859375,46.3330078125,47.0654296875,47.6513671875,46.6748046875,46.3818359375,46.5283203125,45.8935546875,46.0888671875,45.3564453125,44.9169921875,44.2333984375,43.5498046875,42.9150390625,41.6943359375,42.2314453125,40.3759765625,40.4736328125,39.2041015625,38.9599609375,38.7158203125,37.2998046875,36.5185546875,37.2998046875,39.4970703125,42.4755859375,44.6728515625,45.6005859375,47.3095703125,48.6767578125,49.7021484375,50.0927734375,49.7998046875,49.3115234375,49.4580078125,49.6533203125,48.6279296875,48.5791015625,48.0419921875,47.7001953125,46.7724609375,46.2841796875,45.6982421875,44.1845703125,44.2822265625,42.9638671875,42.2802734375,41.8408203125,40.8154296875,40.2783203125,39.4482421875,39.3505859375,39.3505859375,41.6943359375,45.2099609375,46.6748046875,47.2119140625,48.4814453125,49.8974609375,50.0439453125,49.9462890625,49.4580078125,49.1162109375,49.6044921875,48.8232421875,48.7255859375,48.4814453125,47.8466796875,47.4072265625,47.0166015625,45.6982421875,44.9658203125,45.0634765625,44.3798828125,43.5009765625,42.8173828125,42.7685546875,41.3525390625,41.3525390625,42.8173828125,46.1376953125,48.4326171875,50.1904296875,51.2158203125,52.1923828125,52.9736328125,53.1689453125,52.8759765625,52.6318359375,53.0224609375,52.7783203125,52.9248046875,52.5830078125,51.7041015625,51.4599609375,50.0439453125,50.3857421875,48.3837890625,48.5302734375,47.7978515625,47.3095703125,46.5283203125,45.4541015625,44.4775390625,44.2333984375,43.3056640625,43.1591796875,44.9169921875,48.8720703125,51.7529296875,53.3642578125,54.9755859375,56.0009765625,57.6123046875,58.3447265625,58.7841796875,58.1982421875,58.1494140625,58.8818359375,57.4169921875,57.7099609375,56.9287109375,56.2939453125,56.2451171875,55.2685546875,54.9755859375,53.9013671875,52.6806640625,52.2412109375,51.2646484375,50.4345703125,49.7509765625,48.7744140625,48.1884765625,47.2607421875,46.0400390625,46.7236328125,49.1650390625,53.1201171875,54.8779296875,57.1240234375,58.0029296875,59.4677734375,60.4443359375,61.7626953125,61.1767578125,60.8349609375,60.7373046875,60.6884765625,60.5908203125,60.1513671875,59.7607421875,58.8330078125,58.3935546875,57.8564453125,56.3916015625,56.2451171875,55.2685546875,54.0478515625,54.1455078125,52.4365234375,51.9482421875,50.9716796875,49.5556640625,48.6279296875,50.2392578125,54.2431640625,56.8310546875,58.0029296875,59.8095703125,60.2978515625,61.3720703125,61.2744140625,61.8603515625,61.2255859375,61.4208984375,61.0302734375,60.6884765625,60.5419921875,59.7607421875,59.1748046875,58.6376953125,57.9052734375,56.8310546875,55.6591796875,54.9267578125,53.7548828125,53.4619140625,52.9736328125,51.9482421875,50.7275390625,49.7021484375,51.1669921875,54.6826171875,57.7587890625,59.7607421875,61.5185546875,63.0322265625,63.6669921875,64.8388671875,64.9853515625,64.3994140625,64.1064453125,64.4482421875,64.0087890625,63.8623046875,63.1787109375,62.3974609375,61.6162109375,60.3955078125,58.9794921875,58.2470703125,57.0751953125,56.2451171875,55.5126953125,54.5361328125,53.8037109375,52.7783203125,51.4111328125,50.6298828125,49.7021484375,48.6767578125,48.9208984375,52.8759765625,55.7568359375,58.2958984375,60.5419921875,61.8603515625,63.0322265625,64.4970703125,64.5458984375,63.8623046875,63.4228515625,63.3251953125,63.3251953125,63.1298828125,61.5185546875,61.2744140625,60.8349609375,59.2724609375,58.7353515625,57.5146484375,56.0986328125,55.5126953125,54.8779296875,53.4619140625,52.6806640625,51.5087890625,50.5322265625,49.2626953125,48.2861328125,47.4072265625,46.9189453125,48.1884765625,51.0693359375,54.4384765625,56.1474609375,57.3681640625,58.5400390625,59.2724609375,60.0048828125,59.8095703125,58.7841796875,58.8330078125,59.2236328125,57.9541015625,58.5888671875,57.5146484375,56.8798828125,55.8056640625,55.8056640625,54.0966796875,52.8271484375,51.9970703125,51.4111328125,51.1181640625,49.5068359375,48.8232421875,47.9443359375,46.8212890625,46.7236328125,48.2861328125,51.8994140625,54.5849609375,56.2451171875,57.3681640625,58.4423828125,60.1025390625,60.5908203125,60.0048828125,60.3466796875,59.7119140625,59.3212890625,58.8818359375,58.1982421875,58.1982421875,57.1728515625,56.3916015625,55.3662109375,54.8291015625,53.5595703125,52.4853515625,51.3134765625,50.8740234375,50.0927734375,48.8232421875,47.4560546875,46.7724609375,46.0400390625,45.0634765625,44.0869140625,46.0400390625,49.2626953125,53.2177734375,54.1455078125,56.4404296875,57.5146484375,59.8095703125,60.2978515625,60.5908203125,59.9072265625,59.1259765625,58.8818359375,58.8818359375,58.6865234375,58.0517578125,57.3193359375,56.3916015625,55.2197265625,54.5849609375,53.2666015625,52.4365234375,51.6552734375,50.2880859375,49.4091796875,48.4814453125,47.4072265625,46.3818359375,45.4541015625,44.5751953125,44.1357421875,43.2080078125,43.2080078125,45.2587890625,50.0439453125,52.2900390625,53.3642578125,54.6337890625,55.4150390625,56.5869140625,56.3916015625,56.1474609375,55.2197265625,55.9521484375,55.7080078125,54.7802734375,54.7802734375,53.3642578125,52.6806640625,52.2900390625,51.2158203125,50.6787109375,49.0185546875,48.7255859375,47.8955078125,46.7724609375,45.7470703125,45.4541015625,44.3310546875,43.5009765625,44.1357421875,46.6748046875,50.8740234375,52.0458984375,54.2919921875,54.6826171875,55.9521484375,56.9287109375,56.9287109375,56.4404296875,56.2451171875,55.8056640625,54.9267578125,54.7314453125,54.5849609375,53.6572265625,52.9736328125,51.8505859375,51.1181640625,50.0439453125,49.5068359375,47.8466796875,47.6025390625,46.9677734375,45.9912109375,44.8193359375,44.2333984375,43.3056640625,42.6220703125,44.4775390625,47.6513671875,50.5810546875,52.9736328125,54.4873046875,56.0986328125,57.4658203125,58.5888671875,58.1982421875,58.2958984375,57.9541015625,57.5146484375,57.6123046875,57.0263671875,56.6357421875,56.0498046875,54.6826171875,53.7548828125,53.6083984375,52.3876953125,50.9716796875,50.0927734375,49.4580078125,48.3349609375,47.8955078125,46.4794921875,45.4052734375,44.8193359375,43.8427734375,42.5244140625,43.3544921875,46.8701171875,50.7763671875,52.5830078125,53.9990234375,54.9755859375,56.7822265625,57.2216796875,57.4658203125,57.1240234375,56.6357421875,56.7822265625,56.3427734375,55.1220703125,55.3662109375,54.5361328125,53.7548828125,52.9736328125,52.3876953125,51.3134765625,50.3857421875,48.9208984375,48.3837890625,47.7978515625,46.6259765625,46.0400390625,44.6240234375,43.5009765625,43.8427734375,44.0380859375,48.7255859375,51.3623046875,52.7783203125,53.5107421875,54.7802734375,55.8544921875,55.5615234375,55.3173828125,54.9267578125,55.2685546875,55.0244140625,54.4873046875,54.2431640625,53.7060546875,52.8271484375,51.5576171875,51.6064453125,50.3369140625,48.5791015625,48.4814453125,47.0654296875,47.2607421875,46.0888671875,45.0634765625,44.2333984375,43.2568359375,42.6220703125,44.1845703125,47.7978515625,50.8251953125,53.4130859375,54.9755859375,55.6103515625,57.2705078125,58.5888671875,58.1005859375,57.6123046875,57.5146484375,57.1240234375,56.1962890625,56.7333984375,56.0498046875,55.0244140625,54.3408203125,53.1201171875,52.7783203125,51.4111328125,50.2392578125,49.0673828125,48.6279296875,47.8466796875,46.5283203125,46.2353515625,44.7216796875,44.2333984375,43.1591796875,42.0849609375,43.1103515625,45.4052734375,49.0185546875,51.8017578125,53.6083984375,54.9267578125,55.8544921875,57.3193359375,57.4658203125,57.1728515625,56.8798828125,56.6357421875,56.4404296875,56.3427734375,55.8056640625,54.5361328125,53.6572265625,53.0224609375,52.1923828125,50.6787109375,50.0439453125,49.5556640625,47.9931640625,46.9677734375,46.9189453125,45.5517578125,44.3310546875,43.4521484375,42.7197265625,41.9873046875,41.2548828125,40.2294921875,40.2294921875,43.0126953125,45.9912109375,48.6767578125,50.1904296875,50.8740234375,52.0947265625,53.3154296875,52.5341796875,51.5576171875,51.6552734375,51.4599609375,51.4111328125,51.1669921875,50.3857421875,50.1904296875,49.5068359375,49.0673828125,47.7490234375,46.8212890625,46.1376953125,45.1611328125,44.4775390625,43.5009765625,42.4755859375,42.4267578125,40.9619140625,40.4736328125,39.5458984375,40.2783203125,42.7197265625,46.2841796875,48.0419921875,49.8486328125,50.5810546875,52.4853515625,52.8271484375,53.3154296875,52.2900390625,52.0947265625,51.4599609375,51.3134765625,51.2646484375,50.3369140625,49.5556640625,49.0673828125,47.9931640625,47.1142578125,46.7236328125,45.6005859375,44.1845703125,43.8916015625,42.8173828125,41.8896484375,41.2548828125,40.5712890625,39.0576171875,38.4228515625,37.2021484375,36.3720703125,37.2509765625,40.5712890625,43.6474609375,45.7470703125,47.1142578125,48.3837890625,50.7763671875,51.1669921875,50.9716796875,50.5810546875,49.7509765625,49.9951171875,49.9462890625,49.6533203125,48.9208984375,48.1396484375,46.9189453125,46.9189453125,45.7470703125,44.2822265625,44.0380859375,42.8662109375,42.0849609375,41.3037109375,40.1318359375,39.2529296875,37.9345703125,37.8857421875,37.2021484375,35.8837890625,35.6884765625,34.9072265625,34.8095703125,36.6162109375,39.4970703125,42.2802734375,44.2333984375,44.4287109375,46.0400390625,47.0166015625,46.8701171875,46.4794921875,45.8447265625,45.8447265625,45.0634765625,45.4052734375,44.5263671875,44.0380859375,43.2080078125,42.6220703125,41.6943359375,40.9130859375,40.3759765625,39.3505859375,38.2275390625,37.8369140625,36.9580078125,36.5673828125,35.0048828125,33.9794921875,33.2958984375,33.3935546875,33.5888671875,35.7861328125,38.6181640625,40.5712890625,41.5966796875,42.1826171875,43.1103515625,43.8427734375,43.4033203125,42.7685546875,42.9638671875,43.1591796875,42.3779296875,42.6220703125,41.7919921875,41.4501953125,40.8154296875,39.2041015625,38.6669921875,38.3251953125,37.2021484375,36.4697265625,35.9326171875,35.1025390625,34.1748046875,33.1494140625,32.7587890625,32.3681640625,31.4404296875,32.3193359375,33.7841796875,37.3486328125,39.6435546875,41.1572265625,42.2802734375,43.1103515625,44.0869140625,44.4775390625,44.5263671875,43.9892578125,43.6474609375,43.2568359375,43.2568359375,42.8173828125,42.1826171875,41.6455078125,41.1572265625,39.8388671875,39.3994140625,38.5693359375,37.4462890625,36.8115234375,35.3466796875,35.3955078125,34.1259765625,33.6376953125,32.3193359375,32.2216796875,31.7822265625,31.2939453125,31.0986328125,32.1240234375,35.0537109375,37.8369140625,40.4248046875,40.7666015625,42.2802734375,43.8427734375,43.8427734375,43.7939453125,43.1103515625,42.6708984375,42.4267578125,42.5732421875,42.3779296875,42.0849609375,40.6201171875,39.9365234375,39.3994140625,38.7646484375,37.3486328125,36.8603515625,36.2255859375,35.7861328125,34.9560546875,33.8818359375,33.3935546875,32.7587890625,32.4169921875,31.2451171875,30.9033203125,30.3173828125,30.1220703125,31.3916015625,33.3447265625,35.2490234375,37.4951171875,38.2275390625,39.0576171875,39.8388671875,40.5224609375,40.5224609375,39.3017578125,39.4482421875,39.9365234375,39.9365234375,38.8623046875,38.8134765625,38.2275390625,37.2998046875,37.4951171875,36.1279296875,35.2490234375,34.5166015625,34.4677734375,33.8330078125,32.7099609375,32.4658203125,31.5380859375,31.6845703125,31.1962890625,30.5126953125,31.7822265625,34.6142578125,37.1044921875,38.1298828125,39.3994140625,39.9365234375,40.8154296875,40.7666015625,40.7177734375,40.5712890625,40.0341796875,39.7900390625,39.9853515625,39.3505859375,38.6669921875,38.2763671875,38.1298828125,36.8603515625,36.2744140625,35.2490234375,34.5166015625,33.8330078125,33.3447265625,33.1494140625,32.1728515625,31.3427734375,31.0986328125,30.5615234375,30.2197265625,30.7080078125,33.5400390625,36.5673828125,38.0810546875,40.1318359375,41.3037109375,42.4755859375,43.6962890625,43.4521484375,42.6220703125,43.0126953125,42.5732421875,42.1337890625,42.0361328125,42.3291015625,41.1083984375,40.8642578125,40.1318359375,39.4482421875,37.8369140625,37.3486328125,36.8603515625,36.5185546875,35.8837890625,35.0048828125,34.0771484375,33.1005859375,33.1494140625,32.2216796875,32.0751953125,31.4892578125,31.4892578125,32.6123046875,35.9326171875,37.7392578125,39.3505859375,41.2548828125,41.8408203125,43.1103515625,42.8662109375,42.7197265625,42.6220703125,42.6220703125,42.4267578125,42.1337890625,42.3291015625,41.6455078125,40.8642578125,40.0830078125,39.6923828125,38.2275390625,38.2763671875,37.2021484375,36.9091796875,36.3720703125,35.1025390625,34.4189453125,33.7841796875,33.0517578125,32.2216796875,32.1240234375,31.4404296875,32.4169921875,34.4677734375,36.9580078125,38.0810546875,39.3017578125,40.1318359375,40.7666015625,41.2060546875,40.8642578125,40.2294921875,40.1318359375,40.4736328125,40.1318359375,39.3994140625,39.0576171875,38.6181640625,38.8623046875,37.2509765625,36.5673828125,36.2255859375,36.1279296875,35.3466796875,34.2236328125,33.9794921875,33.6376953125,33.0029296875,32.2705078125,31.6845703125,33.8330078125,36.0302734375,38.4228515625,40.2783203125,41.4013671875,42.4755859375,43.3056640625,43.4521484375,43.7939453125,43.0126953125,42.8662109375,43.1591796875,42.7685546875,42.0361328125,41.5966796875,41.4013671875,40.4248046875,40.1806640625,38.9599609375,37.9833984375,37.4951171875,37.1044921875,36.1767578125,35.5419921875,35.0537109375,34.6142578125,33.9794921875,32.9052734375,32.4658203125,31.4404296875,32.7587890625,35.8349609375,38.4716796875,40.5712890625,41.6455078125,43.1103515625,43.9892578125,45.3076171875,45.5517578125,44.8193359375,44.7216796875,44.4775390625,43.5009765625,42.9150390625,42.8662109375,42.2802734375,41.4990234375,40.9619140625,40.1318359375,39.0087890625,38.3740234375,37.5439453125,36.8603515625,36.7138671875,35.6396484375,35.0048828125,34.2236328125,33.3935546875,32.8564453125,33.0517578125,32.0751953125,31.5869140625,33.0517578125,35.2490234375,36.5185546875,38.4716796875,39.5458984375,41.0107421875,41.5478515625,42.0849609375,41.9384765625,41.3037109375,41.8408203125,40.9619140625,40.7666015625,40.4248046875,39.7900390625,39.5458984375,38.8623046875,37.9833984375,37.2021484375,36.7626953125,36.2744140625,35.1513671875,34.8095703125,34.3701171875,33.6865234375,32.7587890625,32.3193359375,32.3681640625,31.2451171875,33.1005859375,34.6142578125,37.2509765625,38.4716796875,39.5947265625,40.5712890625,41.4501953125,41.5966796875,40.5224609375,40.2294921875,40.5712890625,39.7900390625,39.7412109375,38.9599609375,38.7646484375,38.7646484375,37.5439453125,36.7626953125,36.7626953125,35.6884765625,34.9072265625,34.7119140625,34.1748046875,33.1494140625,33.0517578125,32.6123046875,31.5380859375,30.5126953125,30.3662109375,31.0986328125,33.7841796875,36.3720703125,38.4228515625,39.1552734375,41.2060546875,42.2802734375,42.7685546875,42.4755859375,42.1337890625,41.3525390625,41.7919921875,41.4501953125,40.7177734375,40.2294921875,39.8388671875,39.3017578125,38.6181640625,38.0322265625,37.3974609375,36.2744140625,35.4931640625,35.1513671875,35.0048828125,33.7353515625,33.3447265625,32.5146484375,31.5869140625,31.1474609375,30.8056640625,30.4638671875,31.7822265625,33.4423828125,35.8349609375,38.0322265625,39.1064453125,40.1806640625,42.0849609375,41.9873046875,41.3525390625,41.3525390625,41.2548828125,40.6201171875,41.0107421875,40.5712890625,39.9853515625,39.3017578125,39.0087890625,38.7158203125,37.3974609375,36.6650390625,36.1767578125,35.3955078125,34.9072265625,34.4677734375,34.2724609375,33.0029296875,32.4658203125,31.4404296875,30.9033203125,31.0986328125,33.5888671875,36.1767578125,37.2021484375,38.4228515625,39.3017578125,39.8388671875,40.8642578125,40.4248046875,39.8876953125,39.6923828125,39.3505859375,39.0087890625,39.3994140625,39.0087890625,37.8369140625,37.4951171875,36.6650390625,36.2255859375,35.3466796875,34.1259765625,33.8818359375,33.8330078125,33.1494140625,32.5634765625,31.8798828125,31.0009765625,30.9033203125,31.5869140625,34.1259765625,36.7138671875,37.6416015625,39.2529296875,41.0595703125,41.5966796875,42.3291015625,42.0849609375,41.6455078125,41.3525390625,41.1572265625,40.8642578125,40.4736328125,40.1806640625,39.7412109375,39.4482421875,38.4716796875,37.2998046875,37.1044921875,36.2255859375,35.0537109375,34.1748046875,34.5654296875,33.7841796875,32.6123046875,31.7822265625,31.6357421875,30.6103515625,30.1220703125,31.6845703125,33.8330078125,36.6650390625,38.3251953125,40.0830078125,40.7666015625,41.6943359375,43.2080078125,41.6943359375,41.6943359375,41.4501953125,40.7177734375,41.0595703125,40.3271484375,39.8876953125,39.5458984375,38.6181640625,37.8369140625,37.2021484375,36.6650390625,35.8837890625,35.5419921875,34.8095703125,34.2724609375,33.1005859375,32.7587890625,32.5146484375,31.6357421875,30.7080078125,30.9033203125,32.3193359375,35.0537109375,36.8603515625,37.4462890625,38.1787109375,38.7646484375,40.1318359375,39.6435546875,40.1318359375,39.3505859375,39.5458984375,39.1064453125,38.5205078125,38.5205078125,37.2509765625,37.2509765625,37.0068359375,36.0302734375,35.1513671875,34.4189453125,33.2958984375,32.9052734375,33.1494140625,32.4169921875,31.1962890625,31.4404296875,30.3662109375,30.9521484375,33.1005859375,35.5419921875,37.9833984375,39.4970703125,39.8876953125,40.8154296875,41.8896484375,41.9384765625,41.5966796875,40.7666015625,40.7177734375,40.8642578125,40.4736328125,39.4482421875,39.3505859375,38.5205078125,38.1787109375,37.4951171875,36.3232421875,35.3466796875,35.0537109375,34.9072265625,34.0283203125,33.6376953125,33.0517578125,32.3193359375,30.9521484375,30.7568359375,31.1474609375,32.9541015625,35.2001953125,37.8857421875,39.3505859375,40.2294921875,42.3291015625,43.0615234375,42.9638671875,43.2080078125,42.4267578125,41.7431640625,41.5478515625,41.4501953125,41.2060546875,40.9619140625,39.5458984375,39.2529296875,38.6669921875,37.4951171875,36.8603515625,36.3232421875,35.0537109375,34.4677734375,33.8330078125,33.5888671875,32.2216796875,31.6845703125,31.3916015625,30.7568359375,30.8544921875,32.9052734375,35.3466796875,37.2021484375,37.9345703125,39.4970703125,41.1572265625,40.7666015625,40.7177734375,40.3759765625,39.8876953125,40.6201171875,39.7900390625,39.6435546875,39.1064453125,39.0087890625,38.3251953125,37.2021484375,36.9091796875,36.0791015625,35.1025390625,34.3212890625,34.0771484375,33.6376953125,32.4658203125,31.6845703125,31.1962890625,31.0986328125,31.0986328125,33.1005859375,35.3466796875,37.4951171875,38.7158203125,39.4970703125,39.5458984375,41.0107421875,40.4248046875,39.7412109375,40.1806640625,39.8876953125,40.0341796875,39.3017578125,38.6181640625,38.5205078125,37.4951171875,37.0068359375,36.4697265625,35.3466796875,34.7119140625,34.3212890625,33.7353515625,33.2958984375,32.3681640625,32.0263671875,31.0009765625,31.0986328125,31.6357421875,34.0771484375,36.3232421875,38.3740234375,39.8876953125,41.2060546875,41.8896484375,42.6708984375,42.3779296875,42.5732421875,42.0849609375,41.9384765625,42.0361328125,41.4990234375,41.1572265625,40.6201171875,39.8876953125,39.3994140625,38.7158203125,37.9345703125,37.3974609375,36.7138671875,35.1025390625,35.0048828125,35.1513671875,33.7841796875,33.2470703125,31.8798828125,31.7822265625,31.5380859375,31.0009765625,33.4423828125,35.6884765625,38.4228515625,40.1806640625,41.5966796875,42.7197265625,43.5986328125,43.9892578125,43.5498046875,43.6474609375,43.1591796875,42.3291015625,42.3291015625,42.9150390625,42.2802734375,40.8154296875,40.9619140625,39.6435546875,38.4716796875,37.6416015625,37.4462890625,36.3720703125,35.8349609375,35.0048828125,34.5654296875,33.3447265625,33.2470703125,33.5400390625,32.3193359375,32.5634765625,34.1748046875,37.1044921875,38.5693359375,40.5224609375,40.2783203125,41.5966796875,42.5732421875,42.3291015625,41.6455078125,41.6943359375,41.0595703125,40.9619140625,40.4248046875,40.5224609375,39.4970703125,39.3017578125,38.7158203125,37.3974609375,36.7138671875,36.1767578125,35.8349609375,34.7119140625,34.2236328125,34.2724609375,33.2958984375,32.4658203125,31.3916015625,32.2216796875,34.1259765625,35.8837890625,38.1787109375,38.9599609375,39.8388671875,40.7177734375,41.3037109375,41.8408203125,41.3037109375,41.0595703125,40.7666015625,40.5224609375,40.2783203125,39.9853515625,39.3994140625,38.9599609375,38.3740234375,37.9345703125,36.7138671875,36.3720703125,35.6396484375,35.1025390625,34.1259765625,33.5888671875,33.8330078125,32.4169921875,31.8798828125,31.3916015625,33.9306640625,36.8115234375,39.4970703125,40.8642578125,42.0361328125,42.7685546875,44.1845703125,44.7216796875,44.9658203125,44.9658203125,43.5498046875,44.2822265625,43.7451171875,43.4033203125,42.9638671875,42.8662109375,41.4501953125,41.4501953125,40.8154296875,39.8388671875,38.8134765625,37.8369140625,37.4462890625,37.1533203125,35.7861328125,35.1025390625,34.1259765625,34.1748046875,33.4912109375,33.1494140625,34.8583984375,37.2998046875,40.3759765625,41.4013671875,42.6220703125,44.3798828125,45.7470703125,45.6005859375,45.5029296875,44.8681640625,44.7705078125,44.5263671875,44.9658203125,44.8681640625,43.8427734375,43.5498046875,42.2314453125,42.2314453125,40.3271484375,39.8876953125,38.7646484375,38.4228515625,38.2275390625,36.9580078125,36.8603515625,35.3466796875,35.2001953125,34.9072265625,36.4208984375,39.4970703125,41.4501953125,42.9150390625,43.6474609375,44.3310546875,45.6494140625,45.2099609375,44.6240234375,44.7216796875,44.4775390625,44.9169921875,44.1357421875,44.0869140625,43.2080078125,42.5244140625,42.1826171875,41.4013671875,40.2783203125,40.0341796875,38.9111328125,38.2275390625,37.1044921875,36.9091796875,35.4443359375,35.6396484375,35.1025390625,36.6162109375,39.5458984375,42.1826171875,44.0869140625,45.1611328125,46.6259765625,48.0419921875,48.2861328125,48.3837890625,48.2373046875,47.8955078125,47.9931640625,47.6025390625,47.4560546875,46.7724609375,46.1865234375,45.2587890625,44.7705078125,43.4033203125,42.2314453125,41.5478515625,40.9130859375,40.4736328125,39.2529296875,38.2763671875,38.2275390625,37.3486328125,36.6162109375,36.4697265625,38.0322265625,41.3037109375,44.2333984375,45.9423828125,47.5537109375,48.8720703125,49.9462890625,50.9716796875,50.8740234375,50.4345703125,50.4345703125,49.7021484375,49.5556640625,49.5068359375,48.9208984375,47.8466796875,47.1630859375,45.8935546875,45.8447265625,45.1611328125,43.9892578125,42.9638671875,42.0361328125,41.6943359375,40.2783203125,39.6923828125,38.9599609375,38.3251953125,37.0068359375,36.7138671875,36.9580078125,38.8623046875,42.4755859375,44.7216796875,45.5517578125,47.2119140625,49.0185546875,48.8720703125,48.5302734375,48.2373046875,48.1884765625,48.2861328125,48.0908203125,47.6513671875,47.0166015625,46.5283203125,45.3076171875,44.6240234375,44.3798828125,43.1591796875,42.6708984375,41.5966796875,41.1083984375,40.2294921875,39.4970703125,38.4228515625,37.5439453125,37.0068359375,35.7373046875,36.8603515625,39.4482421875,42.0849609375,44.1357421875,44.6240234375,45.9912109375,46.9189453125,47.3583984375,47.2607421875,45.8447265625,45.5517578125,45.8447265625,45.5517578125,45.2587890625,44.7216796875,43.9892578125,43.5009765625,42.5244140625,41.9384765625,40.7177734375,39.9853515625,39.5947265625,38.3251953125,38.0810546875,37.1533203125,36.7626953125,35.6884765625,35.1025390625,35.0537109375,37.5439453125,40.7666015625,43.0615234375,44.7705078125,45.7470703125,47.0166015625,48.3837890625,48.5302734375,47.5048828125,46.9677734375,47.2119140625,47.1630859375,46.0400390625,45.8935546875,45.1123046875,45.0146484375,44.1845703125,43.1103515625,41.9384765625,40.8642578125,40.7666015625,39.1552734375,38.9599609375,38.0810546875,37.1533203125,36.3720703125,35.4931640625,35.1025390625,34.4189453125,33.5400390625,35.7373046875,38.9599609375,41.0595703125,43.1591796875,44.6240234375,45.3076171875,46.4794921875,47.1142578125,46.9189453125,46.4306640625,46.0400390625,45.3564453125,45.2587890625,44.6728515625,44.5263671875,43.5498046875,43.3544921875,41.4990234375,41.2548828125,39.8876953125,39.2041015625,38.3251953125,37.6416015625,36.9580078125,36.4697265625,34.8583984375,34.4189453125,34.3701171875,33.3447265625,33.0517578125,33.1005859375,35.2001953125,38.0322265625,39.6435546875,40.5712890625,41.3525390625,42.8662109375,42.9638671875,42.2802734375,42.1826171875,41.3525390625,41.3525390625,41.1572265625,40.9619140625,39.8876953125,40.0341796875,39.4970703125,38.7646484375,38.0322265625,37.1533203125,36.3232421875,36.2744140625,35.2490234375,34.7119140625,34.0283203125,33.5400390625,33.0029296875,32.4169921875,33.8818359375,36.5673828125,38.3740234375,40.5224609375,41.4990234375,41.6943359375,42.7197265625,41.8896484375,42.1826171875,41.9384765625,41.3525390625,40.7666015625,41.3037109375,40.5712890625,39.4482421875,38.8134765625,38.6669921875,37.6904296875,36.9091796875,36.7138671875,35.6396484375,35.2978515625,34.7119140625,33.8818359375,34.0283203125,32.6611328125,32.8076171875,34.1748046875,37.1533203125,39.6435546875,41.2060546875,42.9638671875,43.7451171875,45.4541015625,45.8447265625,45.5029296875,44.8193359375,44.3310546875,44.3310546875,44.2333984375,43.5498046875,43.5498046875,42.7685546875,42.2802734375,41.5966796875,40.1806640625,40.3271484375,39.3017578125,38.3740234375,38.3251953125,37.0068359375,36.5185546875,35.7861328125,35.0048828125,34.6630859375,34.3212890625,35.7861328125,40.2294921875,43.0615234375,43.8916015625,45.4541015625,46.7236328125,47.6025390625,48.1396484375,48.4326171875,47.2119140625,47.5048828125,47.0654296875,46.5771484375,46.2353515625,45.1123046875,44.8681640625,44.4775390625,43.8427734375,42.9638671875,42.2802734375,41.0107421875,40.8154296875,39.3505859375,39.2041015625,38.6181640625,37.7392578125,36.8115234375,36.1279296875,36.2255859375,37.5439453125,41.0107421875,43.3056640625,44.9658203125,45.2587890625,46.5283203125,47.7001953125,48.3837890625,47.6513671875,47.6025390625,47.1630859375,47.0166015625,46.4794921875,46.7236328125,46.5771484375,44.9658203125,44.3310546875,44.0380859375,42.9150390625,42.3779296875,41.7431640625,40.6689453125,40.4736328125,39.1552734375,38.4228515625,38.3251953125,38.2763671875,40.1318359375,43.3056640625,45.3076171875,46.3330078125,46.8212890625,48.3837890625,49.3603515625,48.9697265625,49.2626953125,48.0419921875,48.6767578125,48.2861328125,47.4072265625,47.5537109375,47.1630859375,46.3818359375,45.7470703125,44.8681640625,44.2333984375,42.7685546875,42.3779296875,41.9873046875,41.2060546875,40.3271484375,39.9853515625,38.9111328125,39.0576171875,42.5244140625,45.9912109375,47.7978515625,49.7021484375,51.5576171875,52.6318359375,53.7548828125,53.6083984375,53.5107421875,53.0712890625,53.0224609375,53.2666015625,53.0224609375,51.7041015625,51.6064453125,50.5322265625,49.7021484375,49.1650390625,48.4814453125,47.0654296875,46.4794921875,45.6494140625,44.4775390625,44.0380859375,43.6962890625,43.2568359375,41.7431640625,41.1572265625,43.0615234375,47.0166015625,50.1416015625,51.3134765625,53.2177734375,54.1943359375,56.1962890625,56.2451171875,55.7568359375,55.3173828125,55.1220703125,55.5615234375,55.3173828125,54.2919921875,54.0966796875,53.1201171875,52.2900390625,51.7041015625,51.1669921875,50.2880859375,49.4091796875,48.3837890625,47.5048828125,46.4794921875,45.6005859375,44.7705078125,43.8427734375,43.3056640625,42.1337890625,43.2080078125,46.4306640625,49.4580078125,51.0693359375,53.0712890625,54.2431640625,55.1708984375,55.0732421875,55.0244140625,55.2197265625,54.9267578125,54.4873046875,53.9990234375,53.9501953125,53.6572265625,52.3388671875,52.1435546875,51.2158203125,50.4345703125,49.4091796875,49.3603515625,47.7978515625,46.4794921875,46.0400390625,45.1123046875,44.4775390625,43.9404296875,42.9150390625,44.2333984375,46.9677734375,50.7763671875,52.3388671875,52.2900390625,53.8037109375,54.8291015625,54.5361328125,54.6337890625,54.8779296875,53.6083984375,54.1455078125,53.7060546875,53.3154296875,52.3876953125,52.3876953125
PPG_subj_15,23,F,N,Non-diabetic,93,35.4635,Earlobe,0.185546875,0.185546875,0.185546875,0.185546875,0.185546875,0.185546875,86.4599609375,27.5537109375,27.7978515625,25.8935546875,23.2080078125,19.5947265625,18.1787109375,15.9326171875,14.8583984375,14.1748046875,13.7353515625,13.0517578125,13.9306640625,14.5166015625,12.3681640625,10.7568359375,10.2197265625,9.1455078125,8.4619140625,7.5830078125,6.7041015625,5.3857421875,6.1181640625,6.7041015625,7.2412109375,7.4853515625,6.7041015625,7.2412109375,6.9970703125,7.2900390625,6.4599609375,5.4833984375,5.6787109375,7.0947265625,6.7529296875,7.6318359375,8.1201171875,8.3642578125,6.9482421875,5.4345703125,2.6025390625,0.5517578125,-2.0849609375,-3.7939453125,-5.5517578125,-5.6982421875,-4.7705078125,-1.5966796875,1.6748046875,3.0419921875,3.0908203125,4.7998046875,6.8505859375,10.0244140625,12.2216796875,12.8564453125,14.4677734375,16.3232421875,16.8603515625,18.1298828125,17.2509765625,15.1025390625,12.3193359375,11.0009765625,10.7080078125,11.0009765625,11.6845703125,12.0751953125,11.9775390625,11.3427734375,11.4404296875,11.6357421875,12.3193359375,12.5146484375,12.7099609375,14.2724609375,15.6884765625,15.4443359375,13.5888671875,11.6357421875,9.9755859375,8.8525390625,7.8759765625,7.8271484375,7.5341796875,6.3134765625,5.1904296875,3.6767578125,3.2861328125,2.7490234375,2.5537109375,0.9912109375,-1.0595703125,-2.5732421875,-0.9619140625,-0.0830078125,2.1142578125,2.7001953125,5.9716796875,8.9013671875,9.5361328125,9.6826171875,9.4384765625,8.7060546875,7.7294921875,7.0458984375,6.6064453125,6.8994140625,6.6064453125,8.5595703125,10.2197265625,11.0498046875,11.9287109375,10.9033203125,10.3173828125,9.7802734375,9.9267578125,9.4384765625,12.8076171875,15.9814453125,18.2763671875,20.9619140625,23.2568359375,25.3076171875,25.4541015625,24.8681640625,23.9892578125,22.8662109375,22.2314453125,21.8896484375,21.1572265625,20.6689453125,19.3017578125,18.7646484375,17.9345703125,16.7138671875,14.8583984375,13.1982421875,10.7568359375,10.0244140625,8.6083984375,7.4365234375,7.9248046875,9.8291015625,11.0498046875,11.6357421875,12.2216796875,12.0263671875,13.2470703125,13.1494140625,12.4169921875,11.5380859375,11.5869140625,11.2451171875,10.9033203125,10.0732421875,8.7060546875,8.8525390625,7.1435546875,6.8505859375,5.4833984375,5.0927734375,4.1162109375,2.8466796875,0.9912109375,0.5029296875,0.2099609375,1.2353515625,2.9443359375,3.6767578125,4.7021484375,4.7998046875,5.3369140625,5.5810546875,4.5068359375,4.3603515625,2.7490234375,2.5537109375,1.9189453125,1.4306640625,0.5029296875,-0.9130859375,-1.4501953125,-3.0615234375,-3.3056640625,-4.8193359375,-5.3076171875,-6.5283203125,-7.7978515625,-8.6767578125,-9.7509765625,-10.2880859375,-8.7744140625,-8.9697265625,-8.7744140625,-8.8720703125,-8.2373046875,-7.7001953125,-7.5537109375,-7.8955078125,-8.0419921875,-7.7490234375,-8.4814453125,-8.9697265625,-9.2138671875,-9.8974609375,-11.0205078125,-11.6552734375,-12.5830078125,-12.7294921875,-13.8525390625,-15.0244140625,-15.6591796875,-16.9775390625,-18.1494140625,-18.3935546875,-17.3681640625,-17.3193359375,-16.4404296875,-16.9287109375,-16.6845703125,-16.2939453125,-15.3662109375,-16.6845703125,-16.6845703125,-16.4892578125,-17.0751953125,-16.9287109375,-17.6611328125,-17.9541015625,-18.6865234375,-19.5654296875,-20.2490234375,-21.3720703125,-21.6162109375,-22.3486328125,-23.6181640625,-24.4482421875,-25.4248046875,-25.4248046875,-24.6435546875,-23.9111328125,-23.3740234375,-23.8134765625,-24.3017578125,-23.9599609375,-23.3251953125,-22.7392578125,-23.8623046875,-24.0087890625,-24.3994140625,-24.0576171875,-24.2529296875,-25.0341796875,-25.1318359375,-26.7431640625,-26.7431640625,-26.8896484375,-28.5009765625,-29.0869140625,-29.6728515625,-30.3564453125,-31.3330078125,-32.3095703125,-32.7001953125,-31.9677734375,-30.3564453125,-30.7958984375,-30.7958984375,-30.6982421875,-29.6240234375,-29.4287109375,-29.9658203125,-29.3798828125,-30.3076171875,-29.2822265625,-29.4287109375,-29.4775390625,-29.2822265625,-28.7451171875,-29.9169921875,-30.5029296875,-30.1611328125,-30.6494140625,-30.7470703125,-31.8701171875,-31.7724609375,-31.8212890625,-33.1884765625,-33.1884765625,-32.0166015625,-30.7470703125,-29.3310546875,-29.1845703125,-27.5732421875,-27.1337890625,-26.1572265625,-25.5712890625,-25.6201171875,-25.3759765625,-24.5947265625,-24.1552734375,-23.5693359375,-24.1552734375,-23.4716796875,-23.1787109375,-23.5693359375,-23.7158203125,-23.4716796875,-23.9599609375,-23.6669921875,-23.9599609375,-24.2041015625,-24.1552734375,-24.7412109375,-24.9365234375,-22.3974609375,-20.3466796875,-18.3935546875,-16.0009765625,-15.2197265625,-12.0458984375,-10.3369140625,-9.0185546875,-8.3349609375,-7.4560546875,-5.8935546875,-5.6005859375,-4.7216796875,-3.8916015625,-3.8916015625,-3.7451171875,-3.4521484375,-3.4033203125,-3.5498046875,-3.2080078125,-3.5498046875,-3.9404296875,-3.6962890625,-4.1845703125,-4.8681640625,-4.3798828125,-5.4541015625,-4.9658203125,-1.9384765625,1.1865234375,2.6513671875,3.9208984375,6.4111328125,8.5595703125,9.3408203125,10.5126953125,9.8779296875,11.3916015625,11.3427734375,12.3681640625,12.6611328125,12.6611328125,11.5869140625,11.7822265625,11.2451171875,10.8544921875,9.9267578125,9.4384765625,9.1943359375,8.2666015625,7.2900390625,6.2158203125,5.6298828125,4.5556640625,3.9208984375,2.2119140625,2.9931640625,5.9228515625,7.0947265625,8.4130859375,8.7548828125,9.8779296875,10.2685546875,10.9033203125,10.4638671875,9.9755859375,9.5849609375,9.7802734375,8.8037109375,8.3154296875,7.7294921875,6.8017578125,5.7763671875,5.3369140625,4.7021484375,3.5791015625,2.6025390625,1.5771484375,0.4052734375,-0.6201171875,-1.8408203125,-1.9873046875,-3.5498046875,-3.9404296875,-3.3056640625,-1.3037109375,-0.3759765625,-0.5712890625,-0.0341796875,-0.3271484375,0.1611328125,-0.8154296875,-0.6201171875,-0.7666015625,-1.6943359375,-2.1826171875,-2.4755859375,-3.1103515625,-4.2333984375,-5.0634765625,-6.1376953125,-6.5771484375,-7.2607421875,-8.0908203125,-9.5556640625,-10.5322265625,-11.1181640625,-12.6318359375,-13.5595703125,-15.1220703125,-15.9033203125,-14.6826171875,-13.1689453125,-12.2412109375,-12.0947265625,-11.9970703125,-10.4833984375,-10.1904296875,-9.8974609375,-10.5322265625,-10.3857421875,-9.9951171875,-9.8486328125,-9.5556640625,-9.6533203125,-10.4833984375,-10.6298828125,-11.4599609375,-11.9970703125,-12.7783203125,-13.0224609375,-14.0966796875,-13.7060546875,-14.6337890625,-15.1708984375,-16.4404296875,-17.0751953125,-18.1005859375,-19.1259765625,-19.8095703125,-18.7841796875,-17.7587890625,-16.6357421875,-16.2939453125,-15.7080078125,-15.2197265625,-14.8779296875,-14.3896484375,-15.0732421875,-14.3896484375,-14.1943359375,-14.2431640625,-14.3408203125,-14.6826171875,-14.8291015625,-14.2431640625,-14.7802734375,-14.6337890625,-15.3173828125,-16.2451171875,-16.6357421875,-17.6123046875,-17.5146484375,-18.1982421875,-18.8330078125,-19.6142578125,-20.5908203125,-21.5185546875,-22.0068359375,-23.1787109375,-22.0068359375,-20.2490234375,-19.6630859375,-19.6630859375,-19.1748046875,-18.1982421875,-17.6611328125,-18.0517578125,-17.4658203125,-16.9287109375,-16.4404296875,-16.7333984375,-16.9287109375,-17.0751953125,-17.3681640625,-17.1240234375,-17.8076171875,-18.3935546875,-18.8818359375,-18.4912109375,-19.4677734375,-20.1025390625,-20.0048828125,-20.7373046875,-21.7626953125,-22.2998046875,-22.9345703125,-23.2763671875,-22.5439453125,-21.2744140625,-20.5908203125,-20.4931640625,-19.4189453125,-19.0771484375,-18.0029296875,-17.7587890625,-18.0029296875,-17.5634765625,-17.1728515625,-17.2705078125,-17.0751953125,-17.0751953125,-18.0517578125,-18.4912109375,-18.6865234375,-18.3447265625,-19.2724609375,-20.3955078125,-20.4443359375,-20.5419921875,-21.1279296875,-22.2998046875,-22.6904296875,-23.1298828125,-23.7646484375,-22.8857421875,-21.1279296875,-19.6630859375,-19.1748046875,-17.5634765625,-16.7333984375,-15.3173828125,-14.2919921875,-13.6572265625,-12.8271484375,-12.0458984375,-10.3857421875,-10.1904296875,-9.8486328125,-10.0439453125,-9.9951171875,-10.1904296875,-9.9951171875,-9.9951171875,-10.2392578125,-10.2392578125,-10.1416015625,-10.5810546875,-10.6787109375,-11.0205078125,-11.6064453125,-12.1923828125,-12.2900390625,-12.7783203125,-12.4853515625,-10.7763671875,-7.7001953125,-6.4306640625,-4.9169921875,-3.4033203125,-1.5966796875,0.8447265625,1.7724609375,2.4560546875,3.2373046875,4.4091796875,5.1416015625,5.6787109375,6.4599609375,6.1181640625,6.0693359375,6.1181640625,6.0205078125,5.8251953125,5.6787109375,5.3857421875,4.7021484375,3.2861328125,2.5048828125,2.1142578125,1.1865234375,0.6005859375,0.5517578125,-0.9130859375,-1.2060546875,0.9423828125,2.8466796875,3.8720703125,5.2392578125,6.1181640625,7.2900390625,8.0224609375,8.1689453125,8.4130859375,7.7294921875,7.6806640625,8.0224609375,6.9970703125,7.2900390625,6.7529296875,6.4599609375,5.5810546875,4.8486328125,3.5791015625,3.2861328125,2.5537109375,2.2119140625,0.5517578125,0.0146484375,-0.6201171875,-1.4990234375,-2.5244140625,-3.6962890625,-3.0126953125,-0.5712890625,-0.5224609375,-0.1806640625,0.6982421875,0.8447265625,2.2607421875,2.6025390625,1.7724609375,0.8935546875,1.3818359375,2.2119140625,0.4052734375,0.6494140625,-0.2294921875,-0.0341796875,-0.6689453125,-1.1572265625,-2.0361328125,-2.3779296875,-3.5498046875,-3.9404296875,-5.1123046875,-6.1376953125,-6.9677734375,-7.7978515625,-8.1884765625,-8.0419921875,-7.3583984375,-5.4541015625,-4.7705078125,-4.5263671875,-3.2568359375,-2.3291015625,-1.4501953125,-0.9619140625,-1.7431640625,-1.1083984375,-0.8154296875,-0.3759765625,-0.9619140625,-1.2548828125,-1.2060546875,-2.0849609375,-2.2314453125,-2.2802734375,-2.9150390625,-3.6474609375,-4.5263671875,-5.1611328125,-5.6982421875,-6.7724609375,-7.7001953125,-8.1884765625,-9.9951171875,-10.2392578125,-11.4599609375,-10.6298828125,-10.4345703125,-9.1162109375,-8.6279296875,-7.8955078125,-7.2607421875,-6.8212890625,-5.9423828125,-5.1123046875,-5.2587890625,-4.4775390625,-4.5751953125,-4.6728515625,-5.2099609375,-5.5517578125,-5.2587890625,-5.9912109375,-6.5771484375,-6.3330078125,-7.0166015625,-7.1630859375,-8.5791015625,-9.3603515625,-9.6533203125,-10.5810546875,-11.6552734375,-12.0947265625,-13.4130859375,-14.4873046875,-15.1708984375,-15.0244140625,-13.6572265625,-13.6083984375,-12.8271484375,-11.8017578125,-11.7529296875,-11.1669921875,-10.9228515625,-10.8740234375,-11.2646484375,-10.2392578125,-10.3369140625,-10.7763671875,-10.6298828125,-10.2392578125,-10.7275390625,-10.4833984375,-11.0205078125,-11.7529296875,-11.8994140625,-12.7294921875,-13.5595703125,-13.7060546875,-14.2431640625,-15.3662109375,-16.3916015625,-17.1240234375,-18.1494140625,-17.0751953125,-16.1962890625,-16.4404296875,-15.3662109375,-15.2197265625,-14.3896484375,-13.8525390625,-12.9248046875,-12.6806640625,-13.1689453125,-13.7548828125,-12.6318359375,-12.2900390625,-13.2177734375,-13.0712890625,-13.2666015625,-13.8525390625,-14.3896484375,-14.6826171875,-15.7568359375,-16.3916015625,-16.8310546875,-17.3193359375,-18.4912109375,-19.0771484375,-20.0048828125,-20.9814453125,-22.2998046875,-22.1533203125,-22.3974609375,-21.5185546875,-20.5908203125,-19.7119140625,-18.8330078125,-18.0517578125,-17.3681640625,-16.5869140625,-14.8291015625,-15.3173828125,-14.1455078125,-13.8037109375,-13.5107421875,-12.9736328125,-12.2900390625,-12.7294921875,-12.2900390625,-12.4365234375,-13.2177734375,-13.1689453125,-13.3642578125,-13.8525390625,-14.7802734375,-15.1220703125,-15.5615234375,-16.1962890625,-16.9287109375,-17.3681640625,-18.5888671875,-19.2236328125,-20.4443359375,-20.7373046875,-19.0283203125,-17.6611328125,-17.1240234375,-16.4404296875,-15.5126953125,-14.2431640625,-12.2412109375,-11.1669921875,-10.7763671875,-10.5810546875,-8.9208984375,-8.2373046875,-7.9443359375,-8.2861328125,-8.0419921875,-7.2119140625,-6.8212890625,-7.3583984375,-7.6025390625,-7.8955078125,-7.9443359375,-7.9443359375,-8.5791015625,-9.2138671875,-9.0673828125,-9.1650390625,-9.7509765625,-9.6533203125,-9.8974609375,-8.0419921875,-5.9912109375,-5.2099609375,-4.2333984375,-2.9638671875,-0.8154296875,-0.0830078125,0.8935546875,0.3564453125,0.6494140625,1.5771484375,1.6259765625,2.2607421875,1.1376953125,1.1376953125,0.8447265625,0.4052734375,-0.4248046875,-1.0595703125,-1.3037109375,-2.3779296875,-3.2568359375,-4.4775390625,-4.9169921875,-5.7958984375,-6.5771484375,-7.8955078125,-8.2373046875,-7.4560546875,-5.6005859375,-3.9892578125,-3.1103515625,-2.3291015625,-1.2060546875,0.3076171875,0.4541015625,1.2353515625,0.2099609375,1.0400390625,1.3330078125,0.6982421875,0.7958984375,0.2099609375,-0.2783203125,-1.2060546875,-2.3779296875,-2.8662109375,-3.5498046875,-4.3310546875,-6.2841796875,-6.5283203125,-7.7001953125,-9.3603515625,-10.7275390625,-11.8017578125,-13.3154296875,-14.6337890625,-15.6103515625,-17.1728515625,-16.6357421875,-13.9990234375,-13.8037109375,-13.6083984375,-12.6806640625,-12.5830078125,-11.8505859375,-11.2158203125,-11.5576171875,-11.4599609375,-12.1435546875,-11.7041015625,-12.6806640625,-12.6806640625,-14.3896484375,-13.6572265625,-14.4384765625,-15.9521484375,-16.4404296875,-18.0517578125,-17.8076171875,-19.1748046875,-21.0302734375,-21.0302734375,-21.8115234375,-22.7880859375,-24.3017578125,-25.4736328125,-26.0595703125,-26.4501953125,-24.7900390625,-24.2041015625,-23.3740234375,-22.7392578125,-22.0556640625,-21.8603515625,-21.5185546875,-21.5673828125,-22.1533203125,-22.7392578125,-21.9091796875,-21.8115234375,-22.2998046875,-22.9833984375,-24.1552734375,-24.4970703125,-24.3994140625,-25.3271484375,-25.6689453125,-26.2060546875,-26.9384765625,-27.1826171875,-28.7451171875,-29.3310546875,-30.3076171875,-30.9423828125,-31.3818359375,-30.0634765625,-28.4521484375,-28.4521484375,-27.8173828125,-26.9384765625,-26.1572265625,-25.8154296875,-25.2783203125,-25.7666015625,-25.0341796875,-24.8388671875,-24.5947265625,-24.5947265625,-24.9853515625,-24.5947265625,-24.8876953125,-25.6689453125,-25.3271484375,-26.0595703125,-25.7666015625,-26.5966796875,-27.3291015625,-27.5244140625,-27.6708984375,-28.8916015625,-29.6728515625,-31.0400390625,-31.3330078125,-31.8701171875,-31.2353515625,-30.2587890625,-29.2822265625,-28.0615234375,-28.4521484375,-27.6220703125,-26.7431640625,-25.8642578125,-25.6201171875,-25.4736328125,-24.9365234375,-24.4970703125,-24.6435546875,-24.0087890625,-24.3017578125,-24.1064453125,-24.4482421875,-24.3505859375,-25.0830078125,-25.4736328125,-25.2294921875,-25.9619140625,-26.3037109375,-27.7197265625,-27.8173828125,-28.4521484375,-29.5751953125,-30.2099609375,-30.5517578125,-31.8701171875,-30.4052734375,-29.2822265625,-28.6962890625,-28.5498046875,-27.5244140625,-26.3037109375,-26.4013671875,-25.8154296875,-24.9365234375,-25.6201171875,-25.3271484375,-24.2041015625,-24.4482421875,-23.8134765625,-23.4716796875,-23.8134765625,-23.8623046875,-23.9599609375,-24.4482421875,-24.4482421875,-24.6435546875,-25.3271484375,-24.6435546875,-25.2294921875,-26.2060546875,-26.5966796875,-26.4501953125,-26.2548828125,-24.5458984375,-24.1552734375,-23.6669921875,-22.9833984375,-21.1767578125,-20.2490234375,-19.6142578125,-19.1259765625,-18.5888671875,-17.9541015625,-17.9052734375,-17.8564453125,-16.7822265625,-17.1240234375,-17.7587890625,-17.8564453125,-17.4169921875,-18.0029296875,-17.4658203125,-17.8564453125,-18.3935546875,-18.4423828125,-19.2724609375,-20.1513671875,-19.9560546875,-21.2255859375,-21.2255859375,-19.8095703125,-17.5634765625,-15.4150390625,-13.8525390625,-11.9482421875,-10.2880859375,-8.4326171875,-7.5048828125,-5.9912109375,-5.4541015625,-4.5263671875,-2.9150390625,-2.7197265625,-2.4755859375,-2.8173828125,-3.3056640625,-2.8173828125,-2.7685546875,-3.6962890625,-4.2822265625,-4.0380859375,-4.1845703125,-5.5517578125,-6.1376953125,-7.0166015625,-7.9443359375,-9.7021484375,-9.6533203125,-11.0693359375,-11.5087890625,-9.4091796875,-7.1630859375,-6.0888671875,-5.4541015625,-3.9892578125,-2.5244140625,-2.0849609375,-1.7431640625,-1.9873046875,-1.6943359375,-2.2314453125,-2.3779296875,-2.4755859375,-2.8173828125,-4.3798828125,-4.6240234375,-5.8447265625,-6.3818359375,-7.5537109375,-8.3837890625,-9.2626953125,-10.1416015625,-12.1435546875,-12.5830078125,-13.7548828125,-14.7314453125,-16.6357421875,-17.6123046875,-19.4189453125,-20.3466796875,-20.6396484375,-19.1748046875,-18.0029296875,-17.4658203125,-17.2216796875,-16.3916015625,-16.7333984375,-16.8310546875,-16.9287109375,-16.7822265625,-17.3681640625,-17.5634765625,-16.9775390625,-17.9541015625,-18.8330078125,-19.4189453125,-20.2490234375,-20.9326171875,-22.0068359375,-22.3974609375,-23.6181640625,-24.4482421875,-26.2060546875,-27.1826171875,-28.2568359375,-29.3798828125,-30.6982421875,-31.4306640625,-32.2607421875,-29.9658203125,-29.6240234375,-29.7216796875,-28.6962890625,-27.4755859375,-27.2314453125,-27.4267578125,-27.1826171875,-27.5732421875,-27.9150390625,-27.8662109375,-27.9150390625,-28.3544921875,-28.8427734375,-29.9169921875,-30.8447265625,-30.6494140625,-31.9189453125,-32.0166015625,-32.7978515625,-34.6533203125,-35.4833984375,-35.6298828125,-36.4599609375,-37.6318359375,-38.8037109375,-39.8291015625,-40.5126953125,-41.8798828125,-41.6845703125,-39.8779296875,-39.4384765625,-38.7548828125,-38.9501953125,-37.8271484375,-37.0458984375,-37.0947265625,-36.7529296875,-36.6064453125,-36.4111328125,-36.5087890625,-36.1669921875,-36.8017578125,-36.5576171875,-37.2900390625,-37.9736328125,-37.8759765625,-38.3642578125,-38.5595703125,-39.3408203125,-39.3408203125,-40.1708984375,-40.2685546875,-41.2451171875,-42.2216796875,-42.8564453125,-42.8564453125,-43.8330078125,-44.8095703125,-45.2001953125,-44.4189453125,-43.5400390625,-42.7099609375,-42.7587890625,-41.8310546875,-41.5869140625,-40.5126953125,-39.7802734375,-40.0244140625,-39.8779296875,-39.9755859375,-39.0478515625,-38.6572265625,-39.3408203125,-39.2431640625,-39.0966796875,-38.9990234375,-39.5361328125,-39.7314453125,-40.0732421875,-40.6103515625,-41.0986328125,-41.0009765625,-41.7822265625,-42.1728515625,-42.2705078125,-43.4423828125,-43.1005859375,-44.4189453125,-43.7353515625,-42.4169921875,-40.9521484375,-40.8544921875,-39.7314453125,-39.1455078125,-38.3642578125,-37.9248046875,-37.2900390625,-37.2412109375,-37.0947265625,-36.0693359375,-36.0693359375,-36.4111328125,-35.9228515625,-35.2880859375,-35.1416015625,-35.2392578125,-35.7763671875,-35.0439453125,-35.9228515625,-36.1181640625,-35.9228515625,-35.3857421875,-35.8251953125,-36.4599609375,-36.0693359375,-36.7041015625,-35.3857421875,-34.3115234375,-32.8955078125,-31.0400390625,-30.2587890625,-28.2568359375,-26.4013671875,-25.4736328125,-24.4970703125,-23.6669921875,-22.5927734375,-22.1044921875,-20.7861328125,-20.1025390625,-19.1259765625,-18.2470703125,-18.5888671875,-18.3447265625,-17.8564453125,-17.4169921875,-18.1982421875,-17.3193359375,-17.5634765625,-18.0517578125,-18.0029296875,-18.7841796875,-19.2724609375,-19.9072265625,-20.3466796875,-21.1767578125,-20.2978515625,-18.0517578125,-15.4150390625,-14.5849609375,-12.5830078125,-10.3857421875,-8.7744140625,-7.1142578125,-6.6259765625,-5.2099609375,-4.6240234375,-4.4775390625,-3.1103515625,-3.4521484375,-2.6220703125,-3.0126953125,-3.3056640625,-3.1103515625,-3.3544921875,-3.5986328125,-3.3056640625,-4.5751953125,-5.2099609375,-6.2353515625,-6.2841796875,-7.4560546875,-7.7978515625,-8.9697265625,-10.4345703125,-10.5810546875,-12.5341796875,-11.8505859375,-10.1416015625,-8.4326171875,-6.8701171875,-6.5771484375,-5.6494140625,-4.1357421875,-3.8427734375,-3.6962890625,-3.6474609375,-4.7216796875,-4.2822265625,-4.3310546875,-5.2587890625,-5.0634765625,-5.8935546875,-6.3330078125,-7.1142578125,-7.7978515625,-7.7978515625,-9.7998046875,-10.2880859375,-11.2646484375,-11.9970703125,-13.6572265625,-14.9267578125,-15.3662109375,-16.2451171875,-17.5634765625,-16.5869140625,-14.6337890625,-13.5595703125,-13.0712890625,-13.1689453125,-12.6318359375,-11.7041015625,-11.0205078125,-12.0947265625,-12.2412109375,-12.1923828125,-12.9248046875,-13.0712890625,-13.8037109375,-14.4384765625,-15.4150390625,-15.2197265625,-16.4404296875,-17.2216796875,-17.8076171875,-18.8330078125,-19.7119140625,-20.8837890625,-21.7626953125,-23.0810546875,-23.3740234375,-24.8876953125,-26.2060546875,-26.4990234375,-25.1318359375,-24.3505859375,-23.7646484375,-22.7880859375,-23.1298828125,-21.4208984375,-21.0791015625,-20.7861328125,-20.4443359375,-21.4697265625,-20.2978515625,-20.6396484375,-20.4931640625,-20.8349609375,-21.4697265625,-21.8115234375,-22.1533203125,-23.6181640625,-24.3017578125,-24.5947265625,-25.5712890625,-26.0107421875,-26.7431640625,-27.7685546875,-28.5498046875,-29.0869140625,-30.8447265625,-31.6259765625,-32.4560546875,-32.3583984375,-31.3818359375,-30.7958984375,-30.4052734375,-29.6240234375,-29.5263671875,-27.9150390625,-27.9638671875,-28.0126953125,-27.8173828125,-28.1591796875,-28.0126953125,-28.2568359375,-28.5986328125,-27.9638671875,-28.5498046875,-28.6474609375,-29.3798828125,-30.5029296875,-31.0400390625,-31.8212890625,-32.0654296875,-33.2373046875,-33.6279296875,-34.8486328125,-35.4345703125,-36.1181640625,-36.8017578125,-37.5341796875,-38.8525390625,-38.9013671875,-38.4130859375,-36.7529296875,-35.9716796875,-36.1181640625,-35.5322265625,-34.8486328125,-35.6298828125,-35.0439453125,-35.1416015625,-34.8486328125,-34.6044921875,-35.1416015625,-34.4091796875,-35.0927734375,-35.0927734375,-35.2880859375,-36.0693359375,-36.6552734375,-37.1435546875,-37.2900390625,-37.5830078125,-38.1201171875,-38.2177734375,-38.9013671875,-39.7314453125,-39.8779296875,-41.1474609375,-40.2685546875,-38.8037109375,-37.8759765625,-37.6318359375,-36.8017578125,-36.4599609375,-35.7275390625,-34.9951171875,-34.2138671875,-35.0927734375,-34.6044921875,-33.4326171875,-33.1396484375,-33.3837890625,-33.1396484375,-33.3349609375,-33.6279296875,-33.7744140625,-33.6279296875,-34.0185546875,-33.8232421875,-34.7509765625,-34.1650390625,-35.7275390625,-34.9951171875,-35.4833984375,-36.6552734375,-37.0947265625,-36.7041015625,-35.5810546875,-33.5791015625,-31.9189453125,-32.0166015625,-30.3564453125,-28.6962890625,-27.5244140625,-26.9873046875,-26.4990234375,-25.9130859375,-24.9365234375,-25.0341796875,-23.5693359375,-23.5205078125,-24.1064453125,-23.4716796875,-23.8134765625,-23.7158203125,-23.7646484375,-23.3740234375,-24.2041015625,-24.3505859375,-24.7412109375,-25.2783203125,-25.1318359375,-25.9619140625,-26.4013671875,-26.4501953125,-27.3291015625,-28.2080078125,-27.5244140625,-25.5224609375,-24.3505859375,-23.3251953125,-22.0068359375,-20.4443359375,-19.2724609375,-18.6865234375,-17.6123046875,-17.2216796875,-16.2451171875,-15.0244140625,-15.1708984375,-14.7802734375,-14.5849609375,-14.0478515625,-13.9013671875,-14.0966796875,-13.8037109375,-14.4873046875,-14.4873046875,-14.7802734375,-14.7802734375,-15.6591796875,-16.2451171875,-16.8310546875,-17.4169921875,-18.6865234375,-19.1748046875,-20.2001953125,-21.6162109375,-19.5166015625,-17.6611328125,-15.9033203125,-15.6591796875,-14.0478515625,-12.9736328125,-12.3388671875,-11.5087890625,-11.4599609375,-11.6064453125,-11.0693359375,-11.1181640625,-10.7763671875,-11.1181640625,-11.1181640625,-11.1669921875,-11.6064453125,-12.4853515625,-12.0458984375,-13.1201171875,-13.9990234375,-13.9501953125,-15.5126953125,-15.7080078125,-16.7822265625,-18.1494140625,-19.0283203125,-19.4189453125,-18.9306640625,-17.3681640625,-15.7080078125,-15.0244140625,-13.9013671875,-13.3642578125,-12.3388671875,-11.7529296875,-11.8505859375,-11.9482421875,-11.8505859375,-11.0693359375,-11.0693359375,-11.3623046875,-12.0458984375,-12.5830078125,-12.8759765625,-13.2666015625,-14.5849609375,-14.8291015625,-15.8544921875,-16.3427734375,-17.0263671875,-18.2470703125,-18.6865234375,-19.8583984375,-20.8837890625,-22.2998046875,-23.3740234375,-24.4482421875,-23.6181640625,-21.3720703125,-20.5908203125,-19.4189453125,-19.3701171875,-18.2958984375,-17.6123046875,-16.9287109375,-16.2939453125,-17.0751953125,-17.2705078125,-16.8798828125,-17.3193359375,-17.2705078125,-17.3681640625,-18.4423828125,-19.5166015625,-19.2724609375,-19.8583984375,-21.1279296875,-21.5673828125,-22.7392578125,-23.4228515625,-24.5458984375,-25.4248046875,-27.1337890625,-28.0126953125,-29.0380859375,-29.9658203125,-30.7958984375,-31.3330078125,-29.9658203125,-29.6728515625,-28.7939453125,-28.9892578125,-28.3056640625,-27.5732421875,-28.2568359375,-27.9150390625,-28.3056640625,-28.4521484375,-28.4033203125,-28.2568359375,-28.3544921875,-28.5986328125,-28.8427734375,-29.8193359375,-29.6728515625,-30.6005859375,-31.8701171875,-32.1142578125,-32.5048828125,-33.0908203125,-34.0673828125,-35.1416015625,-35.7763671875,-36.3623046875,-37.1923828125,-36.3134765625,-34.9951171875,-33.8232421875,-33.4326171875,-32.7978515625,-32.0654296875,-31.1376953125,-30.1123046875,-30.5029296875,-30.5029296875,-29.9169921875,-29.0869140625,-29.6240234375,-29.1845703125,-30.7470703125,-29.9169921875,-30.5517578125,-30.6494140625,-31.5283203125,-32.1142578125,-32.3583984375,-32.9443359375,-33.6279296875,-34.3603515625,-34.9462890625,-35.7763671875,-36.5576171875,-37.4365234375,-37.5341796875,-36.3623046875,-33.9208984375,-33.8232421875,-32.3583984375,-31.5771484375,-31.2353515625,-30.2099609375,-29.0380859375,-29.0869140625,-28.4033203125,-28.0615234375,-28.0615234375,-27.2314453125,-27.3779296875,-27.2802734375,-27.8173828125,-27.7685546875,-28.4033203125,-28.6962890625,-29.0380859375,-29.0380859375,-29.3310546875,-30.4052734375,-31.7236328125,-31.8701171875,-32.6513671875,-33.4814453125,-34.6533203125,-34.8486328125,-35.5322265625,-34.2626953125,-32.6025390625,-32.8466796875,-30.9912109375,-30.6982421875,-29.7705078125,-28.5986328125,-28.0615234375,-28.0615234375,-28.1103515625,-27.1337890625,-26.5478515625,-26.8896484375,-26.8408203125,-26.8896484375,-27.5732421875,-27.9150390625,-27.3291015625,-27.8173828125,-28.5009765625,-29.0869140625,-29.6240234375,-29.3310546875,-30.3564453125,-30.6005859375,-30.9423828125,-31.9677734375,-31.6748046875,-30.3564453125,-29.1845703125,-27.5732421875,-27.3779296875,-26.6455078125,-25.8642578125,-24.7412109375,-24.6923828125,-24.5458984375,-23.6669921875,-22.4951171875,-23.0810546875,-22.6416015625,-22.9345703125,-23.1787109375,-22.7392578125,-23.1787109375,-23.6669921875,-23.9599609375,-24.1552734375,-23.6181640625,-24.3994140625,-25.2783203125,-25.5712890625,-26.4501953125,-27.1826171875,-27.4755859375,-25.6201171875,-23.8134765625,-22.2998046875,-21.7138671875,-20.0537109375,-18.3447265625,-17.6611328125,-16.5869140625,-16.4892578125,-15.8056640625,-16.0009765625,-14.9755859375,-14.8779296875,-14.7314453125,-15.2685546875,-14.8291015625,-15.7080078125,-16.3427734375,-15.9033203125,-16.3427734375,-16.6357421875,-17.4169921875,-18.5400390625,-18.7841796875,-19.2724609375,-20.0048828125,-21.1279296875,-22.1533203125,-23.6669921875,-23.8623046875,-25.0830078125,-23.9111328125,-22.5439453125,-21.7626953125,-21.2744140625,-20.7373046875,-19.3701171875,-18.9794921875,-18.2470703125,-18.2958984375,-18.4912109375,-18.1005859375,-18.0517578125,-17.7587890625,-18.4912109375,-18.1982421875,-20.3466796875,-19.5654296875,-20.1025390625,-20.7373046875,-21.2255859375,-22.4462890625,-23.2275390625,-24.2529296875,-24.8876953125,-25.3759765625,-26.2060546875,-27.4267578125,-28.4033203125,-29.4775390625,-30.8447265625,-30.3564453125,-29.6240234375,-28.9892578125,-28.8427734375,-28.3056640625,-28.3056640625,-28.3544921875,-27.4755859375,-27.3779296875,-28.5498046875,-27.8662109375,-28.3544921875,-28.6962890625,-28.3544921875,-28.5986328125,-30.1123046875,-30.1611328125,-31.0400390625,-31.4306640625,-31.8701171875,-32.3095703125,-33.3349609375,-34.5068359375,-35.1904296875,-35.7275390625,-36.8017578125,-37.5830078125,-38.7548828125,-38.9501953125,-37.9248046875,-37.1923828125,-36.8994140625,-36.2158203125,-36.0205078125,-35.1904296875,-34.7998046875,-35.6298828125,-35.1904296875,-34.9462890625,-34.9951171875,-35.6787109375,-35.1904296875,-34.7998046875,-36.1181640625,-36.6552734375,-36.5087890625,-37.0947265625,-38.1201171875,-37.4853515625,-39.0478515625,-39.6337890625,-39.9267578125,-40.7568359375,-41.7333984375,-42.0263671875,-42.4658203125,-43.3935546875,-43.3447265625,-45.0048828125,-44.3212890625,-42.9541015625,-42.7587890625,-41.8798828125,-41.3427734375,-41.0986328125,-40.1708984375,-39.5849609375,-38.7548828125,-39.1943359375,-38.8525390625,-38.4619140625,-38.5595703125,-38.1689453125,-38.7060546875,-38.9013671875,-38.6572265625,-38.6572265625,-39.7802734375,-40.1708984375,-40.7568359375,-41.2939453125,-41.9775390625,-42.6123046875,-43.2958984375,-44.3701171875,-44.8583984375,-45.8837890625,-46.7138671875,-46.9580078125,-47.9345703125,-49.3505859375,-49.6435546875,-49.2529296875,-47.8369140625,-46.9580078125,-45.7373046875,-46.5673828125,-45.5908203125,-44.5654296875,-44.3212890625,-44.1748046875,-44.4189453125,-44.5166015625,-44.3701171875,-43.9306640625,-44.0771484375,-43.8330078125,-44.6630859375,-45.3955078125,-45.2490234375,-45.3955078125,-46.8115234375,-46.5673828125,-46.9091796875,-47.2509765625,-48.2275390625,-49.1552734375,-49.5458984375,-50.5224609375,-51.0107421875,-51.6455078125,-52.1337890625,-50.9130859375,-49.6923828125,-48.5205078125,-47.5439453125,-46.8115234375,-46.3720703125,-45.3955078125,-44.8095703125,-44.0771484375,-44.3212890625,-44.3212890625,-43.4912109375,-43.6865234375,-43.1982421875,-43.2958984375,-43.8818359375,-43.3935546875,-43.7353515625,-44.3701171875,-44.4189453125,-45.0537109375,-44.8583984375,-45.3955078125,-45.6396484375,-46.3232421875,-46.8603515625,-47.2021484375,-47.7880859375,-47.1044921875,-45.2001953125,-43.2958984375,-41.9775390625,-39.9755859375,-38.8525390625,-36.4111328125,-35.9228515625,-34.6533203125,-33.7255859375,-32.4072265625,-32.0166015625,-31.1376953125,-30.4052734375,-29.0869140625,-28.6962890625,-29.3798828125,-29.0869140625,-28.4521484375,-28.8427734375,-28.0615234375,-28.7451171875,-29.0380859375,-29.3798828125,-29.6728515625,-30.0146484375,-30.1123046875,-30.5517578125,-31.2353515625,-31.6748046875,-30.9912109375,-27.7685546875,-26.0595703125,-24.3017578125,-22.2509765625,-21.2744140625,-19.4189453125,-16.9775390625,-16.4892578125,-15.3662109375,-14.8291015625,-13.9013671875,-12.8759765625,-12.5830078125,-12.1435546875,-12.9248046875,-12.9248046875,-13.1201171875,-13.2177734375,-13.0712890625,-13.7548828125,-14.2431640625,-14.3896484375,-15.5126953125,-16.6845703125,-17.3193359375,-17.9541015625,-18.2470703125,-19.3701171875,-20.4443359375,-21.5673828125,-21.3720703125,-19.4677734375,-17.5634765625,-16.0986328125,-15.7080078125,-14.5849609375,-13.7060546875,-13.4130859375,-11.9482421875,-12.6806640625,-12.5341796875,-12.4853515625,-12.0458984375,-12.7783203125,-12.7783203125,-13.2666015625,-13.6572265625,-13.8037109375,-14.3896484375,-15.0244140625,-15.8544921875,-17.1728515625,-17.3681640625,-17.8564453125,-18.9794921875,-19.6630859375,-20.9326171875,-21.5673828125,-21.7626953125,-19.9560546875,-18.7353515625,-18.1005859375,-17.4658203125,-16.2451171875,-16.0986328125,-16.0986328125,-15.9521484375,-16.5380859375,-16.5869140625,-15.7568359375,-16.1474609375,-16.8798828125,-17.2705078125,-17.8564453125,-18.2470703125,-19.0771484375,-19.4677734375,-21.0791015625,-21.3232421875,-22.4462890625,-22.7392578125,-23.8134765625,-25.0341796875,-26.3037109375,-27.2314453125,-27.6220703125,-26.9873046875,-25.1318359375,-24.6923828125,-24.0087890625,-23.6181640625,-22.8369140625,-21.8603515625,-21.1767578125,-21.2255859375,-21.1279296875,-21.4697265625,-21.2744140625,-21.2744140625,-21.3232421875,-21.4697265625,-21.5185546875,-23.2763671875,-23.2763671875,-23.8623046875,-24.3505859375,-24.8876953125,-25.3271484375,-26.3037109375,-26.9384765625,-27.1337890625,-28.4033203125,-29.6240234375,-30.8935546875,-30.1123046875,-29.9169921875,-28.5009765625,-28.2568359375,-28.5986328125,-27.5732421875,-27.0361328125,-26.6455078125,-26.9384765625,-26.6455078125,-27.4755859375,-26.1572265625,-26.4013671875,-27.1826171875,-27.6220703125,-27.8173828125,-28.6962890625,-29.4287109375,-29.5263671875,-30.5029296875,-30.9912109375,-32.1142578125,-32.3095703125,-33.2373046875,-33.2373046875,-34.1162109375,-34.9462890625,-36.3623046875,-37.0458984375,-36.4111328125,-34.9951171875,-35.0439453125,-34.8486328125,-34.5556640625,-34.4580078125,-33.9697265625,-33.7744140625,-33.9208984375,-34.4091796875,-34.8974609375,-34.4091796875,-34.7021484375,-35.0927734375,-35.5810546875,-35.8251953125,-35.4833984375,-36.1181640625,-36.7529296875,-36.9482421875,-36.8505859375,-38.1201171875,-38.3642578125,-39.2919921875,-40.2685546875,-40.3662109375,-41.1962890625,-39.5361328125,-38.6572265625,-38.3154296875,-38.1689453125,-37.2412109375,-36.5576171875,-35.8251953125,-35.4833984375,-36.2646484375,-34.9951171875,-34.8486328125,-35.3857421875,-35.1416015625,-35.3369140625,-35.5810546875,-35.7763671875,-36.1181640625,-36.1181640625,-36.0205078125,-37.1435546875,-36.8994140625,-37.7294921875,-37.7294921875,-38.6572265625,-39.5361328125,-39.3408203125,-40.5126953125,-39.9267578125,-38.1201171875,-37.4365234375,-36.5087890625,-35.8740234375,-34.6533203125,-33.3349609375,-32.4072265625,-32.0166015625,-31.5283203125,-31.3818359375,-30.8447265625,-30.6982421875,-30.2099609375,-30.2099609375,-30.7470703125,-30.5517578125,-31.0400390625,-31.4794921875,-31.5771484375,-32.1630859375,-32.5537109375,-32.9931640625,-34.0673828125,-34.6044921875,-34.3115234375,-35.6787109375,-35.8251953125,-36.6064453125,-37.9248046875,-37.3876953125,-34.7509765625,-34.3603515625,-33.0908203125,-32.5537109375,-30.6982421875,-29.8193359375,-28.7451171875,-27.9638671875,-28.2080078125,-27.7685546875,-27.7197265625,-27.1337890625,-27.2314453125,-26.7919921875,-27.1337890625,-27.7197265625,-28.0615234375,-28.5009765625,-28.0615234375,-29.3310546875,-30.0634765625,-30.9912109375,-31.6259765625,-31.3330078125,-32.8466796875,-33.3837890625,-34.0673828125,-33.6767578125,-32.8955078125,-31.6748046875,-31.0888671875,-30.4541015625,-29.1845703125,-28.5009765625,-27.9150390625,-28.4033203125,-28.5986328125,-27.8662109375,-28.6962890625,-28.8427734375,-29.0869140625,-29.2822265625,-29.5751953125,-30.1123046875,-31.1865234375,-31.1376953125,-31.8701171875,-33.2861328125,-33.2861328125,-34.0185546875,-35.1904296875,-35.7275390625,-36.3623046875,-37.8271484375,-37.4853515625,-35.6787109375,-34.1162109375,-34.3115234375,-33.3349609375,-31.9189453125,-30.2099609375,-29.3798828125,-29.8681640625,-29.7705078125,-29.5263671875,-29.5751953125,-29.6240234375,-29.8681640625,-30.5029296875,-30.8935546875,-31.2353515625,-31.7236328125,-32.3095703125,-33.3349609375,-33.4326171875,-34.5068359375,-35.1416015625,-36.1181640625,-36.8017578125,-37.6318359375,-38.1201171875,-40.1708984375,-40.5126953125,-41.1962890625,-41.4892578125,-39.7802734375,-39.5361328125,-39.6826171875,-38.7060546875,-38.1201171875,-37.3388671875,-36.9970703125,-36.6064453125,-37.0458984375,-36.4599609375,-36.5576171875,-36.7041015625,-36.9970703125,-37.3876953125,-37.2900390625,-38.3642578125,-39.1943359375,-39.0966796875,-39.6826171875,-40.6591796875,-40.6591796875,-41.8310546875,-43.0029296875,-43.3935546875,-44.0771484375,-44.9072265625,-46.1767578125,-47.0556640625,-47.2509765625,-48.6669921875,-48.1298828125,-47.1533203125,-46.5185546875,-46.5673828125,-46.6162109375,-45.3955078125,-45.2978515625,-45.5419921875,-45.4931640625,-45.3955078125,-45.5419921875,-45.2978515625,-45.9814453125,-45.6396484375,-45.3955078125,-46.0791015625,-47.1044921875,-46.4697265625,-47.2998046875,-47.3486328125,-48.0322265625,-48.6669921875,-48.9111328125,-49.1552734375,-50.1806640625,-51.1083984375,-51.7919921875,-51.6455078125,-50.8154296875,-49.5947265625,-49.6923828125,-48.5205078125,-48.6669921875,-47.6416015625,-47.2509765625,-46.8603515625,-47.2998046875,-47.0556640625,-46.8603515625,-46.7138671875,-46.9091796875,-46.4208984375,-46.8603515625,-46.1767578125,-46.7626953125,-47.4462890625,-48.0810546875,-48.0322265625,-48.6181640625,-49.0087890625,-49.4482421875,-50.7666015625,-51.1572265625,-51.6455078125,-51.7431640625,-52.7685546875,-53.3056640625,-53.6474609375,-51.6943359375,-51.2548828125,-50.4248046875,-49.8876953125,-48.7158203125,-48.7158203125,-47.3486328125,-46.6650390625,-47.5927734375,-46.9091796875,-45.9814453125,-46.0791015625,-45.8349609375,-46.1767578125,-45.5908203125,-45.9326171875,-46.2744140625,-45.8837890625,-46.1279296875,-47.1044921875,-47.5927734375,-47.9833984375,-48.3740234375,-49.0576171875,-49.4970703125,-49.6923828125,-50.8642578125,-51.4013671875,-52.6708984375,-52.7197265625,-52.4267578125,-51.6455078125,-50.1318359375,-49.4482421875,-49.0087890625,-48.3251953125,-47.4951171875,-46.5673828125,-46.1767578125,-46.1279296875,-45.5419921875,-44.8583984375,-44.3212890625,-44.3212890625,-44.1259765625,-44.1748046875,-43.8818359375,-43.3935546875,-44.2724609375,-44.4189453125,-44.0283203125,-44.3701171875,-44.5654296875,-45.0048828125,-45.3466796875,-45.8837890625,-45.6396484375,-47.0556640625,-45.8349609375,-44.9560546875,-43.4912109375,-41.9287109375,-41.9287109375,-40.0244140625,-40.0244140625,-38.2666015625,-38.1201171875,-38.1201171875,-36.8017578125,-36.5087890625,-36.4599609375,-36.0693359375,-36.0205078125,-36.1181640625,-36.0693359375,-35.6787109375,-36.0205078125,-36.7041015625,-37.0458984375,-37.8759765625,-38.4619140625,-38.5595703125,-39.0478515625,-39.5361328125,-40.5615234375,-40.7080078125,-41.7333984375,-41.4404296875,-38.9990234375,-37.3388671875,-36.6064453125,-35.5810546875,-34.1162109375,-33.4326171875,-31.8212890625,-31.7724609375,-30.8935546875,-31.2353515625,-30.7470703125,-30.6005859375,-30.6494140625,-31.2841796875,-31.8212890625,-31.9189453125,-32.8466796875,-32.8955078125,-34.2138671875,-34.4580078125,-35.7275390625,-36.2646484375,-37.4853515625,-37.2412109375,-38.8525390625,-39.1943359375,-41.0009765625,-41.1962890625,-42.3193359375,-42.1240234375,-39.8779296875,-39.5849609375,-39.0966796875,-38.1201171875,-37.1435546875,-36.8505859375,-35.5810546875,-35.5810546875,-35.7763671875,-35.9716796875,-35.7763671875,-36.4599609375,-36.6064453125,-37.9248046875,-38.3154296875,-38.9013671875,-39.7314453125,-39.9755859375,-40.6591796875,-42.1728515625,-42.4169921875,-44.0283203125,-44.7607421875,-45.7373046875,-46.2744140625,-46.6650390625,-48.1298828125,-48.0322265625,-47.1044921875,-45.9326171875,-45.4443359375,-45.5908203125,-44.4677734375,-43.5400390625,-43.6865234375,-43.6865234375,-44.1259765625,-43.6376953125,-43.5888671875,-44.2724609375,-44.3701171875,-44.1259765625,-44.9072265625,-45.2001953125,-45.9326171875,-45.8837890625,-46.4697265625,-47.0556640625,-47.6416015625,-48.9111328125,-49.2041015625,-50.0341796875,-50.4736328125,-51.4501953125,-52.1826171875,-52.4755859375,-50.5224609375,-49.5458984375,-49.3017578125,-48.3740234375,-47.7880859375,-46.5185546875,-46.1279296875,-45.7373046875,-45.2490234375,-45.7861328125,-45.0048828125,-43.8818359375,-43.9306640625,-44.9560546875,-44.6630859375,-44.6142578125,-44.5166015625,-45.5908203125,-46.2255859375,-45.4931640625,-46.8603515625,-47.1533203125,-47.5927734375,-47.9345703125,-48.4716796875,-49.6923828125,-50.1318359375,-51.5478515625,-51.9384765625,-52.3779296875,-51.4013671875,-50.7177734375,-50.6201171875,-49.3994140625,-48.8134765625,-48.7158203125,-47.6904296875,-46.2255859375,-47.6416015625,-47.8369140625,-47.2509765625,-46.1279296875,-46.2255859375,-46.2255859375,-46.1279296875,-45.7861328125,-45.8837890625,-45.9814453125,-46.9091796875,-46.8603515625,-47.5439453125,-47.9833984375,-47.9345703125,-49.2041015625,-49.4970703125,-50.3271484375,-50.7666015625,-51.7919921875,-52.2802734375,-52.9638671875,-53.5986328125,-54.2333984375,-53.5009765625,-51.9873046875,-51.0595703125,-50.9130859375,-50.4248046875,-49.8388671875,-48.7158203125,-49.0087890625,-48.5693359375,-48.0810546875,-47.5439453125,-47.8369140625,-48.0322265625,-47.4462890625,-47.5927734375,-47.7392578125,-48.3251953125,-47.8857421875,-48.5205078125,-48.2275390625,-49.0576171875,-49.4970703125,-49.6435546875,-49.9853515625,-50.9619140625,-51.7919921875,-52.2314453125,-52.3779296875,-51.7431640625,-50.4736328125,-49.0087890625,-48.6669921875,-47.2509765625,-47.1044921875,-45.7373046875,-44.7607421875,-44.8095703125,-44.6142578125,-43.8330078125,-43.5400390625,-42.7587890625,-42.5634765625,-42.1240234375,-43.1494140625,-42.9052734375,-43.0517578125,-42.6611328125,-43.2958984375,-43.7353515625,-43.7841796875,-44.2724609375,-43.7353515625,-44.5166015625,-45.7861328125,-45.4931640625,-45.9326171875,-46.7138671875,-46.6162109375,-47.8369140625,-45.9326171875,-44.1259765625,-42.6611328125,-41.8310546875,-40.6591796875,-39.1455078125,-37.9248046875,-37.0458984375,-36.9482421875,-35.7763671875,-35.0439453125,-34.0673828125,-33.8720703125,-34.0673828125,-33.8720703125,-33.8232421875,-33.6279296875,-33.7255859375,-34.3603515625,-34.2626953125,-35.1904296875,-35.1416015625,-35.8251953125,-36.4599609375,-36.9970703125,-37.6318359375,-38.3154296875,-39.1455078125,-39.4384765625,-40.6591796875,-41.4404296875,-41.6357421875,-39.5361328125,-38.1201171875,-36.8994140625,-35.8740234375,-35.0439453125,-34.2626953125,-32.9931640625,-32.7490234375,-32.2607421875,-32.1142578125,-32.1630859375,-31.1376953125,-32.2119140625,-31.3818359375,-32.3583984375,-33.2861328125,-33.9208984375,-33.6767578125,-34.3115234375,-35.3857421875,-35.3857421875,-36.4599609375,-37.4365234375,-37.8271484375,-38.8525390625,-39.4384765625,-40.2685546875,-40.5126953125,-41.8798828125,-41.5869140625,-39.9755859375,-38.2177734375,-38.2177734375,-37.1923828125,-36.7041015625,-35.9716796875,-35.4345703125,-35.3369140625,-36.5576171875,-36.2158203125,-35.9716796875,-35.9228515625,-36.9482421875,-36.9970703125,-38.1689453125,-38.6083984375,-39.4384765625,-39.9267578125,-41.2451171875,-41.4404296875,-42.2705078125,-43.2958984375,-44.0771484375,-44.0771484375,-45.4931640625,-46.6162109375,-46.9580078125,-47.9345703125,-47.7392578125,-46.0791015625,-45.0537109375,-44.5166015625,-44.5166015625,-43.2958984375,-42.8076171875,-41.1962890625,-41.5869140625,-41.8310546875,-41.6357421875,-41.7333984375,-41.7333984375,-41.6357421875,-42.0263671875,-42.2216796875,-42.6611328125,-43.3935546875,-44.6630859375,-44.3701171875,-45.4443359375,-45.5908203125,-46.4697265625,-47.4462890625,-48.0322265625,-48.8134765625,-50.0341796875,-49.3017578125,-50.6689453125,-51.6943359375,-52.0361328125,-52.6708984375,-51.1572265625,-49.8876953125,-49.0087890625,-47.9345703125,-47.4951171875,-46.6162109375,-46.2744140625,-45.8349609375,-45.8837890625,-45.4931640625,-45.3466796875,-45.9326171875,-45.6884765625,-46.0302734375,-46.2744140625,-46.6162109375,-47.1044921875,-47.2021484375,-47.5927734375,-49.0576171875,-49.2529296875,-49.0576171875,-49.6435546875,-50.1806640625,-51.6455078125,-51.7431640625,-52.8662109375,-52.7685546875,-53.9892578125,-55.2587890625,-55.2587890625,-56.0888671875,-54.1357421875,-52.8662109375,-52.0361328125,-51.3037109375,-51.0595703125,-50.2294921875,-49.2529296875,-49.0087890625,-49.7900390625,-48.6669921875,-48.6669921875,-48.5205078125,-48.5693359375,-48.9111328125,-49.0087890625,-49.3017578125,-49.0087890625,-49.4970703125,-50.3271484375,-50.0830078125,-50.1806640625,-50.5224609375,-50.1806640625,-50.5224609375,-51.4013671875,-51.7919921875,-52.5244140625,-52.8173828125,-52.2314453125,-50.4736328125,-49.6923828125,-48.4716796875,-47.8857421875,-47.3974609375,-47.0068359375,-45.7861328125,-46.3232421875,-45.7373046875,-45.2490234375,-45.2490234375,-45.0048828125,-44.9072265625,-45.5419921875,-45.5908203125,-45.6884765625,-45.9326171875,-46.7138671875,-46.3720703125,-46.8115234375,-47.2021484375,-47.4462890625,-47.3974609375,-48.8623046875,-49.0576171875,-49.6923828125,-49.6435546875,-50.3759765625,-49.3017578125,-47.6904296875,-46.0302734375,-44.7607421875,-43.8818359375,-42.1728515625,-41.0498046875,-40.2685546875,-38.8525390625,-38.5107421875,-37.8271484375,-36.7041015625,-36.0205078125,-35.0927734375,-35.2392578125,-35.2392578125,-34.2138671875,-34.6044921875,-35.1904296875,-34.9462890625,-34.8974609375,-34.8486328125,-34.7021484375,-35.1904296875,-35.0439453125,-35.9228515625,-36.7041015625,-36.8505859375,-37.9736328125,-38.2177734375,-39.2919921875,-38.9501953125,-37.5341796875,-35.7763671875,-34.7998046875,-34.2138671875,-32.9931640625,-31.8701171875,-30.3076171875,-29.8193359375,-29.0869140625,-29.3310546875,-28.5498046875,-27.6708984375,-27.5732421875,-27.4267578125,-27.6220703125,-27.3779296875,-27.7197265625,-27.3291015625,-27.3779296875,-27.4267578125,-27.7197265625,-28.1103515625,-28.4033203125,-29.4287109375,-29.9658203125,-31.0888671875,-31.0888671875,-31.6748046875,-32.2119140625,-32.6025390625,-31.6748046875,-30.2099609375,-28.8427734375,-28.0126953125,-26.4501953125,-25.8154296875,-25.1318359375,-24.3994140625,-24.4970703125,-24.1552734375,-24.1552734375,-23.5693359375,-23.9111328125,-24.0087890625,-25.1318359375,-24.5458984375,-25.4736328125,-25.8642578125,-26.2548828125,-26.8408203125,-27.2802734375,-28.0615234375,-28.3544921875,-28.9404296875,-29.1845703125,-30.0634765625,-30.5517578125,-31.0400390625,-28.8916015625,-27.1826171875,-25.7177734375,-25.3271484375,-24.2529296875,-22.9345703125,-22.2021484375,-22.3974609375,-21.9091796875,-21.4697265625,-21.7138671875,-21.6650390625,-20.9814453125,-21.4208984375,-21.8115234375,-22.3974609375,-22.3486328125,-23.1787109375,-23.4716796875,-24.1552734375,-24.6435546875,-25.2294921875,-25.3759765625,-26.2548828125,-27.6220703125,-28.4521484375,-30.2587890625,-30.0634765625,-30.8447265625,-30.5029296875,-28.5986328125,-27.1337890625,-26.6943359375,-25.7177734375,-24.6435546875,-23.6669921875,-22.7880859375,-22.8857421875,-22.7880859375,-23.0322265625,-22.7392578125,-23.4716796875,-23.9111328125,-23.9599609375,-24.8388671875,-25.0341796875,-26.1572265625,-26.5966796875,-27.1337890625,-27.6220703125,-28.4033203125,-29.5751953125,-30.0634765625,-31.0888671875,-31.2353515625,-32.4560546875,-33.9697265625,-35.1904296875,-35.8251953125,-36.7529296875,-37.6806640625,-36.1181640625,-34.8974609375,-33.9208984375,-34.0185546875,-33.1396484375,-32.7978515625,-32.1142578125,-32.1630859375,-32.2119140625,-32.6025390625,-32.2607421875,-32.5537109375,-32.5537109375,-32.4072265625,-33.5791015625,-33.4326171875,-34.5068359375,-34.8974609375,-35.1416015625,-35.4833984375,-35.3857421875,-36.7041015625,-37.1435546875,-37.3388671875,-38.7548828125,-38.6083984375,-39.6826171875,-40.2197265625,-41.0009765625,-39.6337890625,-38.5595703125,-37.6318359375,-36.7529296875,-36.0693359375,-36.1181640625,-34.9462890625,-34.6044921875,-34.8486328125,-34.2626953125,-34.1162109375,-34.1162109375,-34.7998046875,-34.3603515625,-35.0927734375,-35.0439453125,-35.6298828125,-35.7275390625,-36.1181640625,-37.0458984375,-37.5830078125,-37.7294921875,-37.6806640625,-39.0478515625,-39.6337890625,-39.9755859375,-40.9033203125,-41.2451171875,-41.9287109375,-40.9521484375,-38.8525390625,-38.3642578125,-36.7041015625,-36.4599609375,-35.0439453125,-33.8720703125,-33.3837890625,-32.7490234375,-32.2119140625,-32.1142578125,-31.8701171875,-31.4794921875,-31.1376953125,-31.3330078125,-31.0400390625,-31.6748046875,-32.4072265625,-31.7724609375,-32.2119140625,-32.6513671875,-32.7490234375,-33.5302734375,-34.4580078125,-35.0927734375,-35.4833984375,-36.4111328125,-37.0458984375,-38.1201171875,-39.5849609375,-39.0966796875,-37.1435546875,-35.9228515625,-35.3369140625,-33.8720703125,-33.4326171875,-32.0166015625,-30.9423828125,-29.6728515625,-30.5029296875,-29.7216796875,-29.5751953125,-29.1845703125,-28.3056640625,-28.6474609375,-28.2080078125,-28.3056640625,-29.1357421875,-29.0380859375,-29.5751953125,-29.4287109375,-30.4052734375,-31.0400390625,-31.2841796875,-31.7724609375,-32.7001953125,-32.9931640625,-34.6533203125,-34.5068359375,-35.3857421875,-33.3349609375,-32.3095703125,-30.6982421875,-30.0634765625,-28.8427734375,-28.0126953125,-26.9873046875,-26.5478515625,-26.1083984375,-26.3525390625,-26.0595703125,-25.1318359375,-25.4248046875,-25.5224609375,-25.6201171875,-25.4736328125,-26.4013671875,-25.9619140625,-26.7431640625,-26.6943359375,-27.5244140625,-28.0615234375,-28.0615234375,-28.5009765625,-29.1845703125,-29.4287109375,-30.5029296875,-29.5263671875,-27.8662109375,-26.2060546875,-24.7412109375,-23.3740234375,-22.0556640625,-20.6396484375,-19.5654296875,-18.9794921875,-18.5888671875,-17.6123046875,-17.2705078125,-17.3681640625,-16.8798828125,-16.6357421875,-17.3681640625,-17.2705078125,-17.0751953125,-17.1728515625,-17.9052734375,-18.3447265625,-19.2724609375,-19.3212890625,-20.1025390625,-21.1279296875,-21.5673828125,-23.1298828125,-23.6181640625,-24.3505859375,-25.9130859375,-24.7412109375,-22.9833984375,-21.7626953125,-20.5419921875,-20.0048828125,-18.5400390625,-17.9052734375,-17.0751953125,-16.4404296875,-16.5869140625,-16.2451171875,-15.7080078125,-15.9033203125,-16.1962890625,-16.3427734375,-16.8798828125,-18.0029296875,-18.2958984375,-18.4423828125,-18.7841796875,-19.4677734375,-20.3955078125,-21.2255859375,-22.1044921875,-22.1044921875,-23.0810546875,-23.7646484375,-25.3759765625,-26.5966796875,-27.1337890625,-24.8388671875,-23.3740234375,-22.4462890625,-22.0068359375,-21.1279296875,-20.7861328125,-20.1513671875,-20.3955078125,-20.8349609375,-20.6884765625,-20.0048828125,-20.7861328125,-21.1767578125,-20.8837890625,-21.7626953125,-21.6650390625,-23.0810546875,-23.3740234375,-24.4970703125,-25.1318359375,-25.8154296875,-26.7431640625,-27.1337890625,-28.2080078125,-29.5263671875,-30.0634765625,-30.6494140625,-30.1611328125,-27.6220703125,-26.9873046875,-25.8642578125,-25.6201171875,-24.3994140625,-24.6435546875,-24.2529296875,-24.2041015625,-24.1552734375,-23.8623046875,-23.4716796875,-23.5205078125,-24.8388671875,-24.7900390625,-25.6689453125,-26.3525390625,-26.4013671875,-27.3291015625,-27.7685546875,-28.6474609375,-28.9404296875,-30.2587890625,-31.6259765625,-31.9677734375,-32.1630859375,-33.3349609375,-34.0185546875,-34.7021484375,-34.0673828125,-31.0400390625,-30.1123046875,-29.6240234375,-29.3798828125,-28.2080078125,-27.6220703125,-26.9384765625,-26.9384765625,-27.0361328125,-27.3291015625,-27.5244140625,-27.3779296875,-28.0615234375,-28.4033203125,-28.9892578125,-29.4287109375,-29.8193359375,-30.7470703125,-31.6259765625,-32.4560546875,-32.8955078125,-33.8232421875,-34.5556640625,-36.1181640625,-36.5087890625,-38.0224609375,-38.2666015625,-39.1455078125,-39.9755859375,-38.9013671875,-36.6064453125,-36.0205078125,-35.7275390625,-35.7763671875,-34.3603515625,-34.0185546875,-33.4326171875,-34.3115234375,-34.1162109375,-34.3115234375,-33.9208984375,-34.6044921875,-34.6044921875,-35.4833984375,-35.5810546875,-36.4111328125,-37.0947265625,-37.6318359375,-38.1201171875,-38.9990234375,-39.7802734375,-39.7314453125,-40.9033203125,-41.1474609375,-42.5146484375,-43.3447265625,-44.0771484375,-41.8310546875,-40.8056640625,-39.9755859375,-38.6572265625,-38.7060546875,-37.4365234375,-37.2900390625,-37.2900390625,-37.0458984375,-36.5087890625,-36.7041015625,-36.5576171875,-36.2158203125,-37.2412109375,-37.4853515625,-37.2900390625,-37.7783203125,-38.1689453125,-38.2177734375,-38.7548828125,-39.1455078125,-39.4873046875,-40.3662109375,-40.6591796875,-41.1962890625,-41.8798828125,-42.0263671875,-41.5869140625,-39.9267578125,-38.0712890625,-36.7041015625,-36.0205078125,-34.4091796875,-33.9697265625,-31.6748046875,-31.0400390625,-30.9423828125,-29.8193359375,-29.4775390625,-28.9892578125,-28.7939453125,-28.3544921875,-28.4521484375,-27.8662109375,-28.7939453125,-28.4033203125,-29.1845703125,-29.0380859375,-29.7216796875,-30.0634765625,-30.2587890625,-30.8935546875,-31.6259765625,-32.1142578125,-32.5537109375,-33.4814453125,-33.4814453125,-33.7744140625,-31.7236328125,-30.5517578125,-29.5263671875,-28.1103515625,-26.9384765625,-25.8154296875,-24.0576171875,-23.1787109375,-23.1298828125,-22.8369140625,-22.0556640625,-22.1044921875,-22.1044921875,-21.5673828125,-21.2744140625,-22.2021484375,-22.0068359375,-22.3974609375,-23.0810546875,-23.2763671875,-24.0087890625,-24.2041015625,-25.2783203125,-24.8876953125,-26.3525390625,-26.8896484375,-27.8662109375,-28.5009765625,-29.8193359375,-28.1103515625,-26.7919921875,-25.1806640625,-24.3017578125,-22.7392578125,-22.2509765625,-20.9814453125,-19.8095703125,-20.2001953125,-19.1259765625,-19.1259765625,-18.0029296875,-17.7099609375,-18.2470703125,-18.5888671875,-18.6865234375,-18.8818359375,-18.9794921875,-19.9560546875,-19.9560546875,-20.4931640625,-21.4697265625,-21.4697265625,-23.0810546875,-22.8369140625,-23.6181640625,-25.1318359375,-25.9130859375,-24.4970703125,-23.1787109375,-20.8349609375,-20.7373046875,-19.4189453125,-18.6865234375,-18.0029296875,-17.3681640625,-17.6611328125,-17.9052734375,-17.2216796875,-17.6123046875,-17.0263671875,-17.2216796875,-17.9541015625,-17.9052734375,-18.6376953125,-18.6865234375,-19.0771484375,-19.6630859375,-20.0537109375,-20.9814453125,-22.4462890625,-22.2021484375,-23.4716796875,-23.8134765625,-25.6201171875,-26.3525390625,-25.2783203125,-23.4228515625,-21.6162109375,-21.3720703125,-19.6630859375,-19.0283203125,-18.0517578125,-16.6845703125,-16.9287109375,-16.9287109375,-16.5869140625,-16.2451171875,-16.1474609375,-16.9287109375,-16.4892578125,-17.3681640625,-17.5634765625,-18.4912109375,-18.5888671875,-20.0048828125,-19.9560546875,-20.9814453125,-22.0068359375,-23.4228515625,-24.0087890625,-24.9365234375,-26.4501953125,-27.2314453125,-28.5986328125,-28.8427734375,-28.2080078125,-26.4013671875,-26.0107421875,-25.3271484375,-24.9853515625,-24.3994140625,-23.8134765625,-23.6669921875,-24.3017578125,-24.7412109375,-23.9599609375,-24.9853515625,-24.9853515625,-25.3271484375,-25.9619140625,-26.9873046875,-26.8408203125,-28.5986328125,-29.0869140625,-30.0634765625,-31.1376953125,-31.4794921875,-32.5537109375,-33.6767578125,-34.7509765625,-35.3369140625,-36.6552734375,-36.9482421875,-36.1181640625,-34.7998046875,-34.3603515625,-33.6279296875,-33.4326171875,-33.8232421875,-33.1884765625,-33.7744140625,-34.3603515625,-34.5068359375,-34.8486328125,-35.0927734375,-34.7021484375,-35.9716796875,-37.4365234375,-37.6806640625,-38.6083984375,-38.7548828125,-39.1943359375,-40.5615234375,-41.1962890625,-42.2216796875,-42.5146484375,-43.8818359375,-44.6630859375,-45.6884765625,-46.0791015625,-44.8583984375,-43.3447265625,-42.7587890625,-42.4169921875,-41.7822265625,-40.5615234375,-40.3173828125,-39.6826171875,-39.8779296875,-40.0732421875,-39.5361328125,-39.9755859375,-39.5849609375,-39.7802734375,-41.1474609375,-41.0009765625,-41.0498046875,-41.6845703125,-42.4169921875,-42.5146484375,-44.0283203125,-44.2724609375,-44.5654296875,-45.7861328125,-45.9326171875,-47.2509765625,-47.6416015625,-48.7646484375,-49.3017578125,-47.7392578125,-46.1767578125,-45.6396484375,-45.2490234375,-44.2236328125,-43.3935546875,-42.3193359375,-42.0751953125,-42.0751953125,-42.2216796875,-41.9775390625,-42.0751953125,-42.3193359375,-42.1728515625,-42.9541015625,-42.7587890625,-43.3447265625,-43.4912109375,-43.6376953125,-44.0283203125,-44.8583984375,-45.4443359375,-45.1025390625,-46.0791015625,-46.9580078125,-47.7880859375,-48.5205078125,-48.8623046875,-49.6435546875,-50.5712890625,-49.7900390625,-48.0810546875,-47.2998046875,-46.4697265625,-46.2744140625,-45.0537109375,-44.4189453125,-43.6376953125,-43.5888671875,-43.1005859375,-42.9052734375,-42.6611328125,-43.1494140625,-43.0029296875,-42.3681640625,-43.5888671875,-43.3935546875,-43.9794921875,-44.1259765625,-44.2236328125,-45.2001953125,-45.5908203125,-45.8837890625,-46.4208984375,-46.5185546875,-46.8115234375,-47.8369140625,-47.5439453125,-48.3740234375,-46.8115234375,-44.7607421875,-43.3447265625,-42.8076171875,-41.8310546875,-41.2939453125,-40.6591796875,-40.1220703125,-39.5361328125,-39.2431640625,-38.2666015625,-38.1689453125,-38.1201171875,-38.5107421875,-38.1201171875,-38.6083984375,-38.4130859375,-38.5107421875,-39.0966796875,-39.0966796875,-38.9990234375,-39.5361328125,-39.6337890625,-40.4150390625,-41.2939453125,-41.8310546875,-41.7333984375,-42.5634765625,-39.9267578125,-37.4853515625,-36.2646484375,-35.7275390625,-33.4814453125,-31.9189453125,-30.3564453125,-28.3056640625,-27.8173828125,-26.6455078125,-25.6201171875,-25.8154296875,-24.6435546875,-25.5224609375,-24.6923828125,-24.6923828125,-24.4970703125,-24.9365234375,-24.4482421875,-25.2783203125,-25.2294921875,-25.7177734375,-26.3525390625,-26.1572265625,-26.8896484375,-27.4267578125,-27.6220703125,-28.5986328125,-29.2822265625,-29.4287109375,-28.1103515625,-25.0830078125,-24.2041015625,-23.5693359375,-22.2998046875,-20.8837890625,-19.1259765625,-18.5888671875,-17.9052734375,-17.6611328125,-16.9287109375,-16.9775390625,-16.7822265625,-16.7333984375,-16.6357421875,-16.7822265625,-16.8310546875,-17.5146484375,-18.1982421875,-17.6123046875,-18.6376953125,-19.0283203125,-20.3955078125,-20.5419921875,-21.4208984375,-22.9345703125,-23.6181640625,-24.6923828125,-25.7666015625,-26.7919921875,-27.1826171875,-24.3017578125,-23.3740234375,-22.9833984375,-21.6162109375,-21.3232421875,-20.6884765625,-20.2978515625,-20.0048828125,-20.6884765625,-20.7373046875,-21.1279296875,-21.3232421875,-21.1767578125,-21.9580078125,-22.8369140625,-23.1298828125,-23.7646484375,-24.1064453125,-24.7412109375,-25.5712890625,-26.2060546875,-27.7197265625,-27.9150390625,-28.9404296875,-30.4052734375,-30.5029296875,-31.4794921875,-29.1845703125,-28.0126953125,-27.7685546875,-26.9384765625,-26.2060546875,-26.6455078125,-25.7666015625,-26.1572265625,-25.8154296875,-25.7666015625,-25.7177734375,-26.2548828125,-26.1083984375,-26.4501953125,-26.7431640625,-27.8173828125,-28.9404296875,-29.1357421875,-29.5751953125,-30.5029296875,-30.7470703125,-31.9677734375,-32.5537109375,-33.2861328125,-33.9208984375,-35.6787109375,-34.8486328125,-33.0908203125,-31.3818359375,-31.3330078125,-29.8193359375,-29.0380859375,-28.2080078125,-27.3779296875,-26.7431640625,-27.4755859375,-27.0849609375,-26.7919921875,-26.5966796875,-26.6455078125,-26.4990234375,-26.8408203125,-26.9873046875,-27.1826171875,-27.9638671875,-28.9404296875,-28.9892578125,-29.7216796875,-30.7470703125,-30.9423828125,-31.8212890625,-32.6025390625,-33.8720703125,-34.6044921875,-35.5810546875,-35.0927734375,-32.5537109375,-31.5771484375,-31.2841796875,-30.8935546875,-29.9169921875,-28.6962890625,-28.5009765625,-29.2333984375,-28.7939453125,-29.1845703125,-28.4033203125,-29.1845703125,-29.2822265625,-29.9658203125,-30.3564453125,-30.8935546875,-31.3330078125,-32.6025390625,-32.6513671875,-33.5302734375,-33.9697265625,-33.9697265625,-35.2880859375,-36.0205078125,-36.2158203125,-37.7783203125,-38.8037109375,-39.5849609375,-39.1943359375,-37.4853515625,-37.7294921875,-36.2646484375,-35.9716796875,-35.4345703125,-35.1904296875,-34.8486328125,-34.9462890625,-35.5322265625,-35.1416015625,-35.2392578125,-35.5322265625,-35.6787109375,-36.2158203125,-36.4599609375,-37.4853515625,-36.8994140625,-37.8271484375,-38.5595703125,-38.8525390625,-39.2431640625,-39.8779296875,-40.6591796875,-41.9775390625,-42.5146484375,-42.8564453125,-41.0009765625,-39.4384765625,-39.3896484375,-38.9013671875,-38.5595703125,-37.7783203125,-38.1201171875,-38.1201171875,-37.4365234375,-37.8271484375,-37.0947265625,-37.8271484375,-37.4365234375,-38.4130859375,-38.7548828125,-38.9013671875,-38.8525390625,-39.1455078125,-40.0732421875,-40.1708984375,-40.7080078125,-41.5380859375,-41.8798828125,-42.4169921875,-43.2958984375,-43.6376953125,-42.7099609375,-40.5615234375,-39.6826171875,-38.7548828125,-37.8271484375,-36.1181640625,-35.0439453125,-33.6279296875,-34.0185546875,-33.9697265625,-32.8466796875,-32.6025390625,-31.5283203125,-31.9189453125,-31.6748046875,-31.8701171875,-32.0654296875,-32.0654296875,-32.1142578125,-32.7490234375,-32.8955078125,-33.1884765625,-33.6767578125,-34.0185546875,-35.1416015625,-35.7275390625,-35.7763671875,-36.9970703125,-36.4599609375,-34.6044921875,-33.4326171875,-31.3818359375,-30.6982421875,-29.5751953125,-28.9404296875,-27.1826171875,-26.9873046875,-26.8408203125,-25.8154296875,-26.0107421875,-26.2548828125,-25.9619140625,-26.3037109375,-26.9384765625,-27.7197265625,-28.4033203125,-28.3544921875,-29.2333984375,-29.7216796875,-30.5029296875,-31.0400390625,-32.5048828125,-32.2119140625,-33.5302734375,-33.7255859375,-35.6298828125,-36.4111328125,-36.8505859375,-35.5322265625,-34.0185546875,-32.7490234375,-32.7490234375,-31.6748046875,-31.5283203125,-30.1123046875,-30.8447265625,-30.4541015625,-31.2353515625,-30.9912109375,-31.3330078125,-31.5771484375,-31.7236328125,-32.4072265625,-33.2373046875,-34.1650390625,-34.7509765625,-35.7275390625,-36.5087890625,-36.9482421875,-37.8271484375,-38.5595703125,-38.9990234375,-40.0732421875,-40.0732421875,-41.2939453125,-42.3193359375,-39.9267578125,-39.2919921875,-37.6806640625,-37.5830078125,-37.0458984375,-35.7275390625,-35.1416015625,-35.5322265625,-36.3134765625,-36.4599609375,-36.0205078125,-35.6787109375,-36.3134765625,-36.5576171875,-36.9970703125,-37.1923828125,-37.3388671875,