PPG_subj_17,24,F,N,Non-diabetic,101,34.1816,Forehead,0.185546875,0.185546875,0.185546875,0.185546875,0.185546875,0.185546875,91.8310546875,29.9365234375,30.4736328125,29.9365234375,30.0341796875,29.3505859375,29.1552734375,28.7646484375,28.1298828125,27.6904296875,27.6904296875,27.1533203125,28.8623046875,31.6943359375,31.8896484375,32.7685546875,32.3291015625,33.4033203125,33.7939453125,33.5498046875,33.1591796875,33.5986328125,33.6474609375,33.5498046875,33.1591796875,32.8173828125,31.8896484375,31.5478515625,31.3525390625,30.1318359375,30.1318359375,29.1552734375,28.1787109375,28.4716796875,27.9833984375,27.2509765625,27.2021484375,27.2509765625,28.2763671875,31.3525390625,32.7685546875,33.6474609375,34.6240234375,35.0634765625,35.5029296875,36.3818359375,35.7470703125,35.2099609375,35.2587890625,35.8447265625,35.1611328125,34.3310546875,34.0380859375,33.2568359375,32.6708984375,32.4755859375,32.3779296875,31.3037109375,30.4736328125,30.2294921875,30.3271484375,29.5947265625,29.2529296875,29.2529296875,29.5458984375,28.9599609375,32.1337890625,34.3798828125,35.1611328125,36.4794921875,36.9189453125,37.6513671875,38.1884765625,37.2119140625,37.2607421875,37.0654296875,37.1142578125,36.3330078125,35.4541015625,35.2099609375,33.6962890625,33.0615234375,32.8662109375,32.3779296875,32.0361328125,31.3525390625,30.7177734375,30.6201171875,30.4248046875,30.7177734375,29.9853515625,29.3505859375,28.4228515625,28.6669921875,30.4248046875,33.1103515625,34.1845703125,34.9658203125,35.4541015625,36.0400390625,35.6982421875,35.6494140625,35.2099609375,35.2099609375,34.5263671875,33.5986328125,33.7451171875,32.4267578125,31.6455078125,31.0107421875,30.5712890625,30.2783203125,30.1318359375,30.0341796875,29.1064453125,28.4716796875,28.3740234375,27.4462890625,27.1044921875,27.0556640625,28.1298828125,30.6201171875,32.1337890625,32.4267578125,32.7685546875,33.1591796875,32.8173828125,32.7197265625,31.8408203125,31.9384765625,32.2314453125,32.1337890625,31.5478515625,32.2802734375,30.8642578125,30.2783203125,29.4482421875,29.3017578125,27.6904296875,28.3251953125,27.6416015625,27.9833984375,27.4462890625,27.8369140625,27.3486328125,28.4228515625,30.2294921875,32.0361328125,31.9873046875,32.7685546875,33.9892578125,34.7216796875,35.8447265625,35.7958984375,34.9169921875,34.4287109375,34.2822265625,34.9658203125,33.5498046875,33.2568359375,32.4267578125,31.5966796875,31.6943359375,32.0361328125,31.5966796875,30.5224609375,29.9853515625,29.3505859375,29.3505859375,29.3017578125,30.8642578125,33.0615234375,34.5751953125,35.4052734375,36.2841796875,37.1142578125,37.6025390625,37.5048828125,36.6748046875,36.4306640625,35.9912109375,35.8447265625,34.8193359375,34.8681640625,32.9638671875,33.5498046875,32.7197265625,32.2314453125,32.0849609375,31.3525390625,30.4736328125,30.4736328125,29.9853515625,30.7177734375,32.4267578125,34.0869140625,35.4052734375,36.3330078125,37.1630859375,37.4560546875,37.0166015625,36.7724609375,36.2353515625,36.4794921875,35.7958984375,35.7470703125,35.1123046875,33.9404296875,33.3056640625,32.7197265625,32.0361328125,31.9873046875,31.3525390625,30.5712890625,29.6435546875,29.4482421875,28.9599609375,28.6669921875,29.0087890625,32.7685546875,33.7939453125,34.6240234375,34.7216796875,35.5517578125,35.5029296875,35.5517578125,34.4775390625,34.1845703125,34.5751953125,33.5498046875,33.0126953125,32.5244140625,31.1572265625,29.9365234375,29.9853515625,29.3994140625,28.9599609375,28.3740234375,27.5439453125,27.5439453125,27.5927734375,26.6162109375,25.7373046875,25.4443359375,26.9580078125,29.4482421875,30.0830078125,30.4736328125,30.8154296875,31.2548828125,31.1572265625,29.8876953125,29.8876953125,29.5947265625,30.0341796875,29.7412109375,29.4482421875,28.5693359375,27.5927734375,26.9580078125,26.1767578125,26.3232421875,25.9326171875,25.6396484375,25.3466796875,24.7607421875,24.6142578125,24.5166015625,23.5400390625,24.4677734375,27.0556640625,28.8623046875,29.5458984375,30.3271484375,30.8154296875,31.1572265625,31.4501953125,31.0595703125,31.0595703125,30.9130859375,30.3759765625,30.4736328125,29.3017578125,29.0576171875,28.3251953125,27.8857421875,27.1533203125,27.1533203125,26.8115234375,26.5673828125,25.6396484375,25.4931640625,24.2724609375,23.9794921875,23.2470703125,23.0029296875,23.8330078125,26.6650390625,28.6181640625,29.5947265625,30.5224609375,31.1572265625,31.8408203125,31.8896484375,31.5478515625,31.8408203125,31.1083984375,30.8154296875,30.4736328125,30.1318359375,29.1552734375,28.2763671875,27.2998046875,26.7626953125,26.8115234375,26.7138671875,24.9560546875,25.1025390625,24.5166015625,24.6630859375,23.4423828125,23.2470703125,22.6611328125,22.7099609375,22.0751953125,21.9287109375,21.9775390625,23.5888671875,26.8603515625,27.2998046875,27.4951171875,29.0087890625,29.7412109375,30.0830078125,29.5458984375,29.5458984375,29.3994140625,28.8623046875,28.7646484375,27.8857421875,26.9091796875,26.0302734375,25.0048828125,25.4931640625,24.3212890625,23.7353515625,23.6376953125,22.8076171875,22.3193359375,21.4404296875,21.4404296875,20.1708984375,20.3173828125,19.7314453125,19.1943359375,18.5107421875,18.1689453125,18.4130859375,20.7568359375,23.4912109375,24.6142578125,24.5654296875,24.9560546875,25.0048828125,25.5419921875,25.2001953125,24.6630859375,24.7607421875,24.1748046875,24.1259765625,23.1494140625,22.6611328125,21.6845703125,20.8056640625,20.9033203125,20.7080078125,20.2197265625,19.3408203125,19.1943359375,18.2177734375,18.3642578125,18.1201171875,16.7041015625,16.1669921875,15.9716796875,17.0458984375,20.5126953125,21.5869140625,21.5869140625,22.1728515625,23.0029296875,23.0517578125,23.2470703125,23.0517578125,22.7587890625,23.3935546875,23.4423828125,23.3447265625,22.3681640625,22.0263671875,21.3427734375,20.8544921875,21.0498046875,21.1962890625,20.2685546875,20.1220703125,20.0244140625,19.8291015625,19.1943359375,19.1455078125,18.1201171875,19.2919921875,22.4169921875,24.3701171875,24.6142578125,25.3466796875,26.2255859375,27.1533203125,26.7626953125,27.2021484375,26.2255859375,25.6396484375,25.9326171875,26.1767578125,25.2490234375,24.5654296875,23.8330078125,24.0283203125,23.9306640625,23.8330078125,23.2470703125,22.7099609375,22.1240234375,22.4169921875,21.4892578125,21.0986328125,20.7080078125,20.3173828125,20.0244140625,22.4169921875,25.1513671875,26.1279296875,26.4208984375,27.7392578125,27.4951171875,28.2275390625,28.8134765625,28.2763671875,27.8857421875,27.9833984375,27.8857421875,27.5927734375,26.5673828125,25.7373046875,25.2978515625,25.2001953125,24.0771484375,24.4189453125,23.8330078125,22.7587890625,22.1728515625,22.2216796875,21.8798828125,21.1474609375,20.0244140625,20.3662109375,19.9755859375,20.5615234375,22.7587890625,24.7119140625,25.7861328125,25.6884765625,25.9814453125,26.6162109375,27.3486328125,26.7138671875,26.1767578125,26.6650390625,26.1279296875,25.9326171875,25.2001953125,24.0283203125,23.7841796875,22.9541015625,22.7587890625,22.5146484375,22.1728515625,21.6845703125,20.8056640625,20.0732421875,20.1220703125,19.4873046875,19.3408203125,18.3154296875,17.6318359375,18.6572265625,21.2939453125,21.8310546875,22.6123046875,22.5634765625,23.7841796875,23.5888671875,23.9794921875,23.9794921875,23.5888671875,24.0771484375,24.0283203125,23.0029296875,22.9052734375,22.4169921875,21.9775390625,21.1962890625,21.7333984375,21.1962890625,21.1474609375,20.4638671875,20.6103515625,20.3173828125,19.9267578125,19.7314453125,18.9990234375,21.1474609375,23.0029296875,24.2724609375,24.6630859375,25.3955078125,26.5673828125,26.8115234375,27.1044921875,26.5673828125,26.2744140625,27.0068359375,26.2255859375,26.2744140625,25.4443359375,24.4677734375,24.0283203125,23.8818359375,24.1259765625,23.3935546875,22.9052734375,22.5634765625,21.7822265625,22.5146484375,21.7333984375,20.7568359375,21.0009765625,21.7822265625,23.7841796875,26.1767578125,27.0556640625,27.4462890625,28.6669921875,29.2529296875,29.6435546875,28.6669921875,29.2041015625,28.2763671875,28.9599609375,28.8623046875,27.9833984375,27.1044921875,26.3232421875,26.1279296875,25.7861328125,25.1025390625,25.0537109375,24.6142578125,24.2236328125,23.9794921875,23.4423828125,22.8564453125,22.3681640625,21.9775390625,21.4892578125,21.9287109375,22.0263671875,25.1025390625,26.8115234375,27.3486328125,28.4228515625,28.8623046875,30.1806640625,29.6923828125,29.6435546875,29.3505859375,29.1552734375,28.9111328125,28.7646484375,27.4462890625,27.1044921875,25.7373046875,24.9560546875,25.4443359375,24.7607421875,23.8330078125,23.4912109375,23.2958984375,22.6123046875,22.4169921875,21.4892578125,21.0986328125,20.3173828125,20.3662109375,19.7802734375,21.4892578125,24.0283203125,24.9072265625,25.2001953125,25.1025390625,26.0791015625,26.5185546875,26.6650390625,25.4931640625,26.0791015625,25.8837890625,26.1279296875,25.0537109375,24.5166015625,23.3935546875,22.5634765625,22.1240234375,22.4658203125,21.8798828125,21.4892578125,21.1474609375,20.9521484375,20.1708984375,20.1708984375,19.9267578125,18.9013671875,19.1943359375,20.9521484375,23.6376953125,25.2490234375,25.5419921875,25.6884765625,26.0302734375,26.7626953125,26.9091796875,25.9326171875,26.3720703125,26.4697265625,26.1279296875,25.5419921875,25.2490234375,24.2236328125,23.3935546875,23.1494140625,23.1005859375,22.5634765625,22.3681640625,21.8310546875,21.4404296875,22.1728515625,21.3427734375,21.0986328125,20.9521484375,21.5380859375,24.1259765625,26.4208984375,26.5185546875,27.8369140625,28.5205078125,29.1552734375,29.7900390625,29.4482421875,29.0087890625,28.8623046875,28.6181640625,28.5205078125,27.2998046875,27.0068359375,26.2744140625,26.0302734375,25.7373046875,25.1513671875,25.0048828125,24.8583984375,24.0771484375,23.2470703125,23.2958984375,22.1728515625,21.8798828125,21.6357421875,20.8544921875,21.0986328125,21.7822265625,23.6376953125,25.9814453125,27.2998046875,27.7392578125,28.7646484375,29.1552734375,29.5947265625,29.4482421875,29.5947265625,28.7158203125,28.8134765625,28.1787109375,27.6904296875,27.2509765625,26.0302734375,25.2978515625,25.0537109375,24.9560546875,24.4677734375,23.4912109375,23.1982421875,22.7587890625,22.1728515625,21.7822265625,21.0498046875,20.7080078125,20.4150390625,19.2919921875,18.9501953125,18.9501953125,19.7802734375,22.7099609375,24.4189453125,25.1513671875,25.5908203125,26.2255859375,26.2255859375,26.2255859375,25.7861328125,25.9326171875,26.1279296875,24.7607421875,24.8095703125,23.7841796875,22.4658203125,22.5634765625,21.5869140625,21.0986328125,20.8056640625,21.0498046875,20.0732421875,19.2919921875,19.1943359375,19.0966796875,18.3642578125,18.1689453125,18.0224609375,16.7529296875,17.9736328125,20.5615234375,22.1240234375,22.2216796875,22.6611328125,23.3935546875,23.1494140625,23.5888671875,22.6611328125,22.3193359375,22.8564453125,23.1982421875,22.8076171875,21.7333984375,21.1474609375,20.0732421875,19.9755859375,20.1708984375,19.6826171875,19.3408203125,18.5595703125,18.5107421875,18.4619140625,18.2666015625,17.9736328125,17.5830078125,18.9501953125,21.4404296875,22.9541015625,24.4189453125,25.2978515625,26.0791015625,26.3232421875,26.8115234375,26.1767578125,25.8837890625,25.9814453125,25.3955078125,25.7373046875,25.0048828125,23.6865234375,23.4912109375,22.5146484375,22.5146484375,22.0751953125,21.6357421875,20.9521484375,20.9033203125,20.3173828125,20.2685546875,19.5361328125,19.2431640625,18.7060546875,19.3896484375,22.1240234375,24.5166015625,24.8095703125,25.7373046875,26.4208984375,27.2509765625,27.5927734375,27.4951171875,26.5185546875,26.7626953125,26.2255859375,25.9814453125,25.8837890625,25.0048828125,24.2236328125,23.3447265625,23.4423828125,23.0029296875,22.7587890625,22.2705078125,21.3427734375,21.0498046875,21.2939453125,19.8291015625,19.6337890625,19.5361328125,18.7060546875,18.9013671875,20.0732421875,22.5146484375,23.8818359375,25.0537109375,25.1025390625,25.8349609375,26.7138671875,26.1767578125,26.0791015625,26.1279296875,26.0791015625,25.6884765625,24.9560546875,24.4677734375,23.3447265625,22.2705078125,22.5634765625,22.2705078125,21.6845703125,21.4892578125,20.6103515625,20.2685546875,19.8291015625,19.3896484375,19.1455078125,18.0712890625,18.2666015625,17.2900390625,18.2177734375,20.5615234375,22.1240234375,22.2216796875,22.9052734375,22.8564453125,23.4912109375,23.6865234375,22.6611328125,23.1005859375,23.1494140625,22.9541015625,23.0029296875,21.8798828125,20.9521484375,20.6591796875,20.3173828125,19.7314453125,19.9755859375,19.4384765625,18.7060546875,18.3642578125,18.4619140625,17.8759765625,16.9482421875,16.8017578125,17.9248046875,20.3662109375,22.3193359375,23.0029296875,23.1494140625,24.1259765625,24.8583984375,24.8095703125,24.9560546875,24.1748046875,24.0771484375,24.4189453125,24.3212890625,23.7841796875,23.1982421875,22.5146484375,21.9287109375,21.2451171875,20.6103515625,20.8056640625,20.8056640625,19.7802734375,19.5361328125,19.4873046875,18.8037109375,18.6572265625,18.9501953125,20.5126953125,22.4169921875,23.5400390625,24.6142578125,25.5419921875,25.5419921875,26.3232421875,26.6162109375,26.8603515625,26.2255859375,25.9326171875,26.1767578125,25.6884765625,25.1025390625,24.0771484375,23.3935546875,23.3447265625,22.6123046875,22.4658203125,22.0263671875,21.3916015625,21.4404296875,20.4638671875,19.8779296875,19.2431640625,18.9013671875,17.9736328125,18.8037109375,19.0478515625,21.4892578125,23.8330078125,24.2236328125,25.4443359375,25.8349609375,26.1767578125,26.4208984375,26.5673828125,26.0791015625,26.2255859375,26.2744140625,25.2001953125,24.3212890625,23.6376953125,22.3681640625,21.9287109375,21.2939453125,20.5615234375,21.0498046875,20.2197265625,19.5849609375,18.9990234375,18.4619140625,18.1689453125,17.5341796875,16.7529296875,15.9716796875,16.2646484375,17.8759765625,20.3662109375,21.2451171875,21.8798828125,22.4658203125,22.7099609375,23.0029296875,23.1005859375,22.6123046875,22.7099609375,22.7587890625,23.0029296875,22.4169921875,21.4404296875,21.0986328125,20.5615234375,19.6337890625,19.3408203125,19.1943359375,18.4619140625,18.6572265625,17.7783203125,17.7783203125,17.0458984375,16.1669921875,15.4345703125,16.4111328125,18.1689453125,20.4638671875,21.6357421875,22.0263671875,22.8076171875,23.1005859375,23.5400390625,22.8564453125,22.4169921875,22.6123046875,23.1494140625,22.5634765625,22.2705078125,20.8544921875,20.8056640625,19.6337890625,19.9755859375,19.3896484375,18.7548828125,18.5107421875,18.6083984375,18.0712890625,17.9736328125,17.0947265625,16.8994140625,17.4365234375,19.3896484375,22.0263671875,22.6123046875,23.8330078125,23.9794921875,25.1513671875,25.3466796875,24.9560546875,24.7607421875,24.0771484375,24.2724609375,23.8330078125,23.5400390625,22.8076171875,21.8310546875,21.5869140625,21.0986328125,20.9521484375,20.3173828125,19.1943359375,19.1943359375,19.1455078125,18.4130859375,17.7783203125,16.8994140625,16.8505859375,16.7041015625,16.5576171875,17.4365234375,20.4150390625,22.0751953125,21.7822265625,23.5888671875,23.9794921875,24.7119140625,24.6142578125,24.6630859375,24.0771484375,23.8330078125,23.5400390625,23.5888671875,22.8564453125,21.3427734375,20.9521484375,20.2197265625,19.4384765625,19.4873046875,18.9501953125,18.6572265625,18.1201171875,17.6806640625,17.3388671875,16.8505859375,15.9716796875,15.9228515625,15.3857421875,15.0439453125,15.6787109375,18.4130859375,19.5361328125,20.1220703125,21.0009765625,21.0986328125,22.3193359375,22.8076171875,22.5634765625,21.6845703125,22.1240234375,21.2939453125,20.6591796875,20.1220703125,18.8037109375,18.2177734375,17.8271484375,17.1435546875,16.8994140625,16.9482421875,16.9482421875,16.1181640625,15.7763671875,15.2392578125,14.8974609375,14.1650390625,13.4326171875,15.0439453125,17.2412109375,18.5595703125,18.9990234375,19.1943359375,20.0244140625,20.2685546875,20.4150390625,19.7314453125,19.8291015625,20.0732421875,19.9267578125,19.8291015625,19.3408203125,18.5595703125,17.6806640625,17.5830078125,17.6806640625,17.0458984375,16.9970703125,16.5576171875,16.5087890625,16.7041015625,16.0693359375,15.9716796875,15.9716796875,17.7783203125,19.8779296875,21.1962890625,21.2451171875,22.4169921875,22.7099609375,23.4912109375,23.4912109375,22.7587890625,23.1005859375,23.5400390625,22.8076171875,22.6123046875,21.1962890625,20.1220703125,20.6591796875,20.0244140625,19.5361328125,19.7802734375,18.8525390625,18.6572265625,18.1689453125,18.1201171875,17.0947265625,16.5576171875,17.0458984375,17.7783203125,20.9521484375,22.0263671875,22.2705078125,23.9306640625,25.2001953125,24.8583984375,25.4931640625,24.8583984375,24.5166015625,24.5166015625,23.8330078125,23.6865234375,22.8564453125,22.6123046875,21.9287109375,21.1962890625,21.0986328125,20.7080078125,20.2197265625,19.6826171875,19.8291015625,18.4130859375,18.4619140625,17.5341796875,18.1201171875,18.2177734375,20.8544921875,22.7099609375,23.1005859375,23.3935546875,24.3212890625,24.7119140625,25.1025390625,24.7119140625,24.0771484375,23.7353515625,23.6376953125,23.3935546875,22.9541015625,22.2705078125,21.0986328125,20.8544921875,20.4150390625,20.1220703125,19.2919921875,19.0478515625,18.5107421875,18.3154296875,17.6806640625,16.9970703125,16.8994140625,16.7529296875,17.8759765625,21.0986328125,21.3427734375,21.4404296875,22.5146484375,23.1494140625,22.5634765625,22.2216796875,21.7822265625,22.0263671875,22.1240234375,21.8798828125,21.3427734375,20.7080078125,19.6337890625,19.5849609375,19.0478515625,19.0966796875,18.6572265625,18.3154296875,17.7783203125,17.7783203125,18.1201171875,17.5341796875,17.5341796875,19.6826171875,21.6357421875,22.7587890625,24.0283203125,24.6630859375,25.2490234375,25.6884765625,24.9560546875,24.7119140625,24.3212890625,24.4677734375,23.8818359375,23.3447265625,22.6123046875,22.0751953125,21.6357421875,21.0986328125,21.5869140625,20.7568359375,20.5126953125,19.9267578125,19.6337890625,19.2431640625,19.2919921875,19.7802734375,21.0009765625,23.6376953125,24.5166015625,25.7861328125,25.8837890625,26.9091796875,27.6416015625,28.1787109375,27.2998046875,27.2021484375,27.0068359375,27.2021484375,25.9326171875,25.2001953125,24.4677734375,24.2236328125,23.9794921875,23.6865234375,22.7587890625,22.3681640625,21.6845703125,21.3427734375,21.5869140625,20.6103515625,19.9755859375,20.2197265625,20.3662109375,22.3681640625,24.7607421875,25.3466796875,26.3232421875,27.1044921875,27.9833984375,29.0576171875,28.8134765625,27.9345703125,27.6904296875,27.5927734375,27.1533203125,26.3720703125,25.9326171875,24.7119140625,24.8095703125,23.9306640625,23.5888671875,23.1982421875,22.4169921875,21.8798828125,21.2451171875,21.0498046875,20.6103515625,20.3662109375,19.3896484375,18.7548828125,19.0966796875,20.4150390625,22.8076171875,23.6376953125,24.2236328125,25.5908203125,25.6396484375,25.9814453125,25.9326171875,25.6396484375,25.5419921875,25.2490234375,25.5419921875,24.5654296875,24.4677734375,23.1982421875,22.1728515625,22.3681640625,21.9287109375,21.4404296875,21.2451171875,21.3427734375,20.8056640625,20.3662109375,20.1220703125,19.4384765625,19.6337890625,21.0498046875,23.2958984375,25.1513671875,25.9814453125,26.9091796875,28.0322265625,28.2763671875,28.3251953125,28.2763671875,27.5927734375,28.0322265625,27.1044921875,27.2021484375,26.1767578125,25.0537109375,24.5654296875,24.6630859375,24.0283203125,22.8076171875,22.7587890625,22.3193359375,21.7333984375,21.1962890625,20.8544921875,20.0732421875,19.5361328125,19.0478515625,19.6337890625,21.7333984375,24.2236328125,25.0537109375,26.1767578125,27.5439453125,27.3974609375,28.5693359375,29.2529296875,28.4716796875,28.2763671875,28.6181640625,28.0810546875,27.5927734375,26.3232421875,25.5908203125,24.9072265625,24.1748046875,22.9052734375,22.8564453125,22.8076171875,21.7333984375,21.3427734375,20.8544921875,20.1220703125,19.6337890625,18.6572265625,17.7294921875,18.3642578125,17.5341796875,18.9501953125,22.4169921875,24.0771484375,24.1259765625,25.5419921875,26.6650390625,26.9580078125,27.2998046875,26.6650390625,26.4208984375,26.5673828125,25.7861328125,25.2001953125,24.3701171875,23.1494140625,22.3193359375,21.5380859375,21.0498046875,20.9521484375,20.2685546875,19.4873046875,18.9501953125,18.4130859375,17.7294921875,17.1435546875,16.6064453125,15.2392578125,15.2880859375,15.8740234375,18.1689453125,20.8056640625,21.7822265625,21.6845703125,22.6123046875,23.5400390625,23.4423828125,22.4658203125,22.2216796875,22.4169921875,22.5146484375,21.9287109375,20.5615234375,20.4638671875,20.3173828125,19.0966796875,19.0966796875,18.9501953125,18.2666015625,18.0224609375,17.0458984375,16.8994140625,16.7529296875,16.1669921875,15.2880859375,15.9228515625,17.8271484375,20.4638671875,21.9287109375,22.5146484375,23.0517578125,24.1748046875,24.0771484375,23.9794921875,24.1748046875,23.9306640625,23.2958984375,22.6611328125,22.4169921875,21.0498046875,20.3662109375,19.4384765625,18.9990234375,18.8037109375,18.2666015625,17.5341796875,16.7529296875,16.4599609375,15.6787109375,15.3857421875,14.7998046875,13.7744140625,13.8232421875,14.6533203125,18.2666015625,19.5849609375,20.1708984375,21.3916015625,21.8798828125,23.1494140625,23.1982421875,22.2705078125,22.1728515625,22.0263671875,21.9287109375,21.0986328125,20.8056640625,19.9755859375,18.9501953125,18.5595703125,18.1201171875,17.1435546875,17.3388671875,16.1181640625,15.9228515625,15.2392578125,14.8974609375,13.9697265625,13.4326171875,12.4560546875,12.1630859375,12.5537109375,15.1904296875,17.2900390625,19.1943359375,19.5361328125,20.5615234375,21.1962890625,21.6845703125,21.1962890625,21.0009765625,20.0732421875,19.3408203125,19.0478515625,18.1201171875,17.5830078125,17.3388671875,15.9716796875,16.0693359375,15.3369140625,14.7021484375,14.1162109375,13.1396484375,12.6025390625,12.3095703125,12.2607421875,11.1376953125,10.4541015625,10.4052734375,10.4541015625,12.5537109375,14.8974609375,16.0693359375,16.4599609375,16.8505859375,17.0458984375,17.6806640625,17.4365234375,16.3623046875,16.7041015625,16.6552734375,16.5087890625,15.8251953125,15.7275390625,14.6044921875,13.9697265625,14.4580078125,12.6513671875,13.7255859375,12.6513671875,12.4072265625,12.1142578125,12.0654296875,11.5771484375,10.6494140625,11.4794921875,14.0673828125,16.1181640625,16.7041015625,17.3876953125,18.0224609375,18.3642578125,18.7548828125,18.1201171875,17.9248046875,18.0712890625,18.4619140625,17.7294921875,17.4365234375,16.6064453125,15.9228515625,15.3857421875,15.0439453125,14.5068359375,14.2626953125,13.8720703125,12.8466796875,12.7490234375,12.3583984375,12.1630859375,11.9677734375,13.8232421875,15.4345703125,17.5341796875,18.7548828125,18.9990234375,19.9755859375,20.7080078125,20.9521484375,20.1220703125,19.4873046875,19.8291015625,19.0966796875,18.3642578125,18.1689453125,17.9736328125,16.8017578125,16.3623046875,16.0205078125,15.9716796875,15.2880859375,14.7509765625,14.3603515625,14.0673828125,13.6767578125,12.4560546875,13.0419921875,13.7744140625,16.6064453125,17.9248046875,19.3896484375,19.7802734375,20.7080078125,21.0009765625,20.8056640625,19.8779296875,20.3173828125,19.6826171875,19.4873046875,20.0732421875,19.2431640625,17.8271484375,17.3388671875,16.9482421875,16.6552734375,16.2646484375,15.9228515625,15.3369140625,14.9462890625,14.2626953125,14.2138671875,13.3349609375,12.7978515625,12.5048828125,14.3603515625,17.1435546875,18.2177734375,17.9736328125,19.1943359375,19.7314453125,20.4638671875,19.8779296875,19.1455078125,19.4384765625,19.3896484375,18.7548828125,18.1201171875,17.1923828125,16.5087890625,15.8740234375,15.0439453125,15.2392578125,14.7021484375,13.5302734375,13.5302734375,13.0908203125,12.4072265625,11.9677734375,11.9189453125,12.4072265625,15.6298828125,16.4111328125,17.3876953125,17.6318359375,18.1689453125,17.8271484375,17.4853515625,17.5341796875,16.6064453125,17.4365234375,17.0458984375,16.4111328125,15.9228515625,15.5322265625,14.7021484375,15.2392578125,14.7998046875,14.1650390625,13.6767578125,13.1884765625,13.5302734375,12.7001953125,12.6025390625,13.5791015625,16.0693359375,17.6318359375,18.8037109375,19.2431640625,19.5849609375,20.4150390625,20.3662109375,20.4638671875,19.7802734375,20.3173828125,19.5849609375,19.1455078125,19.0478515625,17.6806640625,17.2900390625,16.4599609375,16.2646484375,16.1669921875,15.2392578125,15.7763671875,14.6044921875,13.6279296875,13.4326171875,13.8232421875,14.2626953125,16.5576171875,18.4130859375,19.3896484375,20.9033203125,21.4892578125,22.0751953125,22.9541015625,22.5146484375,21.4404296875,21.9287109375,21.4892578125,21.1474609375,20.3662109375,19.9267578125,18.5595703125,18.6083984375,18.1201171875,17.2900390625,16.7529296875,16.2158203125,15.8251953125,15.3857421875,14.7509765625,14.6533203125,14.1650390625,13.9208984375,14.8974609375,17.9248046875,19.2919921875,20.2685546875,21.6357421875,21.9287109375,22.8076171875,22.6611328125,21.7333984375,21.9287109375,21.4892578125,21.7333984375,20.7080078125,20.2685546875,19.9267578125,18.7060546875,18.1201171875,17.9736328125,17.0947265625,17.0458984375,16.3134765625,15.8251953125,15.8251953125,14.6044921875,14.5556640625,13.2373046875,12.8466796875,12.5537109375,14.0673828125,16.9970703125,17.5830078125,18.4619140625,19.1455078125,20.2197265625,20.4150390625,19.8291015625,19.1455078125,19.4384765625,19.5361328125,18.8037109375,18.7060546875,17.6806640625,16.8505859375,16.2646484375,16.1181640625,15.6787109375,14.5068359375,14.5068359375,14.4580078125,13.5791015625,13.0908203125,12.7001953125,12.9931640625,12.5048828125,13.6767578125,16.0205078125,17.5341796875,18.4619140625,19.1943359375,19.7802734375,19.9267578125,19.9755859375,19.5849609375,19.6337890625,19.7314453125,19.4384765625,18.9990234375,17.9736328125,17.9736328125,16.9482421875,16.4111328125,16.5087890625,16.5087890625,15.8251953125,15.1416015625,14.7021484375,13.8720703125,14.1162109375,13.4814453125,14.3603515625,17.7294921875,19.3408203125,19.7314453125,20.5615234375,21.5869140625,22.3193359375,23.5400390625,23.2470703125,22.6123046875,22.2216796875,22.6123046875,21.6845703125,21.3427734375,20.0244140625,19.5849609375,19.0966796875,18.3154296875,17.5341796875,17.3388671875,16.4599609375,16.2158203125,15.9228515625,14.8486328125,14.3603515625,14.0673828125,13.1884765625,14.4580078125,17.4365234375,19.3896484375,20.7080078125,21.0009765625,22.4658203125,23.4912109375,23.2958984375,22.7587890625,23.1005859375,22.4169921875,22.2705078125,22.1728515625,20.7568359375,20.4150390625,18.7548828125,18.2177734375,18.0224609375,17.0458984375,16.4111328125,15.8251953125,14.6533203125,14.2626953125,13.7255859375,12.9931640625,12.2119140625,12.1630859375,11.5283203125,12.3095703125,13.9208984375,17.2900390625,18.5595703125,19.3896484375,20.4638671875,21.1962890625,21.6845703125,21.7822265625,21.0986328125,20.6103515625,20.1708984375,19.8779296875,19.1455078125,18.6083984375,16.6064453125,16.4111328125,15.8251953125,15.2880859375,14.9951171875,14.5068359375,13.2861328125,13.2861328125,12.4072265625,11.5771484375,11.4306640625,10.5517578125,9.9658203125,10.2099609375,13.6767578125,15.6298828125,16.7041015625,17.1435546875,17.3876953125,18.2177734375,18.0224609375,17.9736328125,16.8994140625,16.9482421875,16.8994140625,16.7529296875,15.8251953125,15.0439453125,14.2138671875,13.8720703125,13.6279296875,12.9443359375,12.7978515625,12.0166015625,11.4794921875,11.3330078125,11.4794921875,10.6982421875,10.1611328125,11.0888671875,14.4580078125,16.2646484375,16.8505859375,17.4365234375,18.4619140625,19.3408203125,18.9990234375,18.9013671875,18.0712890625,18.1201171875,18.5107421875,17.4365234375,17.3876953125,15.9716796875,15.0927734375,15.1416015625,14.0185546875,14.3603515625,13.9208984375,13.2861328125,12.9443359375,11.8701171875,11.3330078125,11.2841796875,10.7958984375,10.1611328125,12.7490234375,15.9716796875,16.8505859375,18.3154296875,19.0966796875,20.0244140625,20.6591796875,20.3173828125,19.3408203125,19.4873046875,19.6337890625,18.6572265625,18.7548828125,18.1201171875,17.1923828125,16.4599609375,15.5810546875,15.2880859375,14.8486328125,13.7255859375,12.9931640625,12.7001953125,12.1630859375,11.2841796875,11.3330078125,10.1123046875,9.5263671875,9.9169921875,11.5771484375,14.7021484375,16.1181640625,16.9482421875,18.1689453125,18.6572265625,19.3896484375,19.9267578125,18.9013671875,18.3154296875,18.3642578125,18.4130859375,17.3876953125,16.4111328125,15.1416015625,14.7021484375,14.1162109375,13.2373046875,13.1884765625,12.7490234375,11.6259765625,10.6982421875,11.2841796875,9.9169921875,9.9169921875,8.5986328125,8.1591796875,8.3544921875,10.8447265625,12.9443359375,13.9697265625,14.3115234375,14.5068359375,15.5322265625,15.8251953125,14.6533203125,14.6044921875,14.5556640625,14.9462890625,14.0673828125,12.9443359375,12.6025390625,12.3095703125,11.5771484375,11.1865234375,10.6982421875,10.2099609375,9.6240234375,8.8916015625,8.7939453125,9.1357421875,8.1103515625,7.5732421875,7.8173828125,10.2099609375,12.6513671875,14.3115234375,14.4580078125,15.5322265625,16.1669921875,16.3134765625,16.1669921875,15.7275390625,15.9716796875,15.6298828125,15.7275390625,14.3115234375,13.8720703125,13.5302734375,12.6025390625,11.8212890625,12.0654296875,11.7236328125,11.2353515625,10.9423828125,10.8935546875,10.6494140625,9.2333984375,8.8916015625,8.7939453125,9.8681640625,12.7001953125,14.7021484375,15.7275390625,16.3134765625,18.1201171875,18.4130859375,19.0966796875,18.8037109375,18.4130859375,18.6572265625,18.5107421875,18.3642578125,17.8759765625,16.1181640625,15.0927734375,14.2138671875,13.9697265625,14.0673828125,13.4326171875,12.4560546875,12.4072265625,12.1142578125,11.5771484375,10.7958984375,9.4287109375,9.3310546875,9.1357421875,9.1845703125,11.2841796875,14.4091796875,16.1669921875,17.1435546875,18.0224609375,18.6083984375,18.9990234375,19.1943359375,18.9013671875,18.4130859375,18.1689453125,17.9248046875,16.8994140625,16.1669921875,15.2880859375,14.2138671875,14.0673828125,12.9931640625,12.7978515625,12.4560546875,11.7236328125,10.6494140625,10.8447265625,9.7705078125,9.2822265625,8.7939453125,8.0615234375,7.0849609375,7.3291015625,6.8896484375,10.5029296875,13.2861328125,13.1396484375,14.3115234375,14.3603515625,15.1904296875,15.5322265625,14.5556640625,14.0185546875,14.5556640625,14.1650390625,14.0185546875,13.1884765625,12.1630859375,11.2353515625,10.6982421875,9.9658203125,10.1123046875,9.5751953125,9.2822265625,9.0869140625,8.2568359375,8.0126953125,7.8662109375,6.9873046875,6.7431640625,6.9873046875,11.3818359375,13.3349609375,14.0185546875,15.0439453125,15.8740234375,16.8017578125,16.2646484375,15.8251953125,15.3857421875,16.1181640625,15.1416015625,15.1904296875,14.6533203125,13.6279296875,13.4814453125,12.3095703125,11.7724609375,11.1865234375,10.2587890625,10.0146484375,9.9658203125,8.8427734375,8.5986328125,8.2080078125,7.4267578125,7.1337890625,6.8896484375,8.4033203125,12.1630859375,13.5302734375,14.9951171875,15.4345703125,16.8017578125,17.1923828125,18.0224609375,17.5830078125,17.3388671875,16.8994140625,16.8505859375,16.0693359375,15.4345703125,13.9208984375,13.0908203125,12.8466796875,12.3095703125,11.8212890625,11.1865234375,10.9423828125,9.5751953125,9.5751953125,8.9892578125,7.5244140625,7.7197265625,7.3291015625,6.5478515625,5.9619140625,6.3525390625,6.4013671875,9.7216796875,12.0166015625,13.2373046875,13.9697265625,14.6044921875,15.2392578125,15.9228515625,15.7275390625,15.0439453125,14.6533203125,14.8974609375,14.1162109375,13.0419921875,11.9189453125,10.8935546875,10.1123046875,9.5751953125,8.9404296875,8.9404296875,8.2080078125,7.5732421875,7.1826171875,6.4013671875,5.9619140625,5.1806640625,4.3994140625,3.4228515625,3.4716796875,2.6904296875,4.4482421875,8.5009765625,8.9404296875,9.5751953125,10.3076171875,9.4775390625,10.2587890625,9.6728515625,9.2333984375,9.0380859375,9.5751953125,9.2333984375,8.8427734375,8.3056640625,7.1826171875,6.4990234375,6.0595703125,5.3271484375,4.8388671875,5.0341796875,4.2529296875,4.4970703125,3.5205078125,3.4228515625,2.5439453125,2.2998046875,2.5439453125,5.9130859375,7.6220703125,9.1357421875,9.4775390625,10.3564453125,10.6494140625,11.3330078125,11.2353515625,10.5029296875,10.7958984375,10.5517578125,10.5029296875,9.5751953125,9.3310546875,8.4033203125,7.8662109375,7.4755859375,7.5732421875,7.3291015625,6.5478515625,6.4013671875,6.0595703125,5.5224609375,5.0830078125,4.4482421875,4.3017578125,4.8876953125,8.4521484375,10.6005859375,11.0888671875,12.2119140625,13.5791015625,13.9697265625,14.1650390625,14.3603515625,13.9697265625,13.7255859375,13.8720703125,13.1396484375,12.7978515625,12.0166015625,11.0400390625,10.3564453125,10.4052734375,9.0869140625,9.7705078125,8.9404296875,7.9638671875,7.7197265625,7.4755859375,6.5966796875,6.1572265625,5.3271484375,4.9853515625,4.5947265625,5.4248046875,8.2080078125,10.5029296875,11.7724609375,12.0654296875,13.0908203125,14.2138671875,13.9697265625,14.2626953125,13.8232421875,13.2373046875,13.7744140625,13.2373046875,12.7978515625,11.9677734375,10.4541015625,9.9169921875,9.4775390625,8.9404296875,8.5009765625,8.4033203125,7.4755859375,7.7685546875,6.0107421875,6.0595703125,5.0830078125,4.7412109375,4.4482421875,3.9599609375,4.2041015625,4.3017578125,7.1337890625,9.0380859375,10.0146484375,10.0146484375,10.7470703125,11.3330078125,10.6982421875,10.8935546875,10.6005859375,10.5517578125,10.3076171875,9.8681640625,9.1357421875,8.4521484375,7.5732421875,6.7431640625,7.3779296875,6.1572265625,6.0107421875,6.2060546875,5.7177734375,4.8876953125,4.8388671875,3.9111328125,4.0087890625,3.3740234375,4.5947265625,7.3291015625,8.9892578125,9.7216796875,10.4052734375,10.8935546875,11.6259765625,11.3330078125,10.5517578125,11.0400390625,10.8447265625,10.9423828125,11.2841796875,9.8193359375,9.8681640625,9.0869140625,9.1357421875,8.8427734375,7.9150390625,8.0126953125,7.3291015625,7.0361328125,6.9873046875,6.4013671875,6.1083984375,6.3525390625,6.3037109375,9.1357421875,11.2353515625,12.4560546875,12.7490234375,13.8232421875,14.7998046875,15.1904296875,15.3857421875,14.2138671875,14.4580078125,14.4091796875,14.1162109375,13.9208984375,12.7001953125,12.1630859375,11.1865234375,11.0400390625,10.8935546875,10.1611328125,9.6240234375,9.1357421875,8.9892578125,8.2080078125,8.1103515625,7.1337890625,6.9384765625,6.8896484375,7.3779296875,10.6005859375,12.6513671875,13.1884765625,14.3115234375,15.7275390625,15.4833984375,16.0693359375,15.8740234375,15.6787109375,15.7763671875,15.1416015625,14.5068359375,14.1650390625,13.2861328125,12.3583984375,11.3818359375,11.0400390625,10.8935546875,11.0400390625,9.8193359375,8.9892578125,8.8427734375,8.2080078125,7.0361328125,5.7177734375,5.5712890625,5.9619140625,4.9853515625,5.8642578125,7.8173828125,10.4541015625,12.2119140625,12.3095703125,13.0419921875,13.5791015625,14.3115234375,13.1396484375,12.6025390625,12.5537109375,12.7978515625,12.0654296875,11.8701171875,10.4052734375,8.9404296875,8.5986328125,8.6962890625,7.6708984375,7.3779296875,7.1337890625,6.1572265625,6.1083984375,5.7666015625,4.8388671875,4.1552734375,3.5205078125,2.7392578125,3.8623046875,7.4755859375,9.4287109375,9.5263671875,10.0146484375,10.8935546875,10.8935546875,11.5771484375,11.0400390625,10.4052734375,11.4794921875,10.7958984375,10.9912109375,10.6494140625,9.6728515625,9.1357421875,8.3544921875,8.5498046875,8.2568359375,7.3779296875,7.0849609375,6.6455078125,6.1572265625,6.4990234375,6.1083984375,4.9365234375,5.3271484375,8.4521484375,10.9912109375,12.4560546875,13.9697265625,14.4091796875,15.4345703125,15.7275390625,15.7763671875,15.6298828125,14.8974609375,15.0927734375,15.6787109375,14.5068359375,13.1884765625,12.7978515625,11.8701171875,11.7236328125,11.1376953125,11.3818359375,10.4541015625,10.3564453125,9.9169921875,9.4775390625,9.0869140625,8.5009765625,7.4267578125,7.3291015625,7.2802734375,8.7939453125,11.9677734375,13.6767578125,15.0927734375,15.5810546875,16.4111328125,16.9970703125,17.1435546875,16.5087890625,16.9970703125,16.5087890625,16.3134765625,15.8251953125,15.8251953125,14.3603515625,13.2861328125,12.7978515625,12.3583984375,12.7978515625,11.7236328125,10.9912109375,10.6494140625,10.5029296875,9.7705078125,8.7451171875,8.1103515625,7.3291015625,7.0361328125,6.3037109375,6.1572265625,6.0595703125,8.1591796875,11.4794921875,12.4560546875,12.7978515625,13.2373046875,14.6533203125,14.6533203125,14.3115234375,14.0673828125,13.9208984375,13.7744140625,13.5302734375,12.7001953125,12.1630859375,11.1376953125,10.5517578125,9.9658203125,9.4287109375,9.1357421875,8.5498046875,8.3544921875,7.5244140625,7.2314453125,7.3779296875,6.5478515625,5.4248046875,5.5224609375,5.8642578125,8.6474609375,11.2841796875,11.4794921875,11.8701171875,13.1396484375,12.6025390625,12.7978515625,12.2119140625,12.2119140625,12.2607421875,12.9931640625,12.8466796875,12.4072265625,10.8935546875,10.0634765625,9.6728515625,9.4775390625,9.4287109375,8.2568359375,8.7939453125,7.6708984375,7.5732421875,7.0849609375,7.4267578125,5.6201171875,6.3037109375,7.3291015625,10.6005859375,12.7001953125,13.6767578125,14.3603515625,15.3369140625,15.9716796875,16.9970703125,16.6064453125,16.1669921875,15.6787109375,15.5810546875,15.3857421875,15.0439453125,14.0185546875,13.0419921875,12.9443359375,11.7236328125,11.5283203125,11.4794921875,10.5029296875,10.3076171875,9.7705078125,9.5263671875,9.1845703125,8.0615234375,7.4755859375,7.2314453125,7.8173828125,8.3544921875,11.6259765625,13.4814453125,14.2138671875,15.1904296875,16.6552734375,16.9482421875,17.6806640625,17.1923828125,17.4853515625,17.4365234375,16.3134765625,15.9228515625,15.6787109375,14.7998046875,13.3837890625,12.8955078125,12.7001953125,12.2607421875,11.8701171875,11.0888671875,10.0146484375,9.9658203125,9.4775390625,7.9638671875,8.1591796875,6.9873046875,6.6943359375,6.6943359375,5.8642578125,5.4248046875,6.4990234375,10.5029296875,11.8701171875,12.6025390625,12.9443359375,13.1396484375,14.5556640625,14.3603515625,13.6279296875,13.2373046875,13.6767578125,13.1884765625,12.5048828125,11.7724609375,10.9912109375,9.9169921875,9.6240234375,9.6240234375,8.9404296875,8.4033203125,7.9638671875,7.4755859375,7.1337890625,6.7431640625,6.1083984375,5.5712890625,4.8876953125,5.4248046875,7.6708984375,9.7216796875,10.9423828125,11.1865234375,11.7236328125,12.7978515625,12.8955078125,12.4072265625,12.0166015625,12.4072265625,12.2607421875,12.3095703125,11.6259765625,10.6494140625,10.1123046875,9.3798828125,9.4775390625,8.9404296875,8.7939453125,8.1103515625,7.4267578125,7.2314453125,7.1826171875,6.3525390625,6.0107421875,5.8642578125,6.5478515625,9.5263671875,12.3583984375,12.7490234375,13.7744140625,14.2138671875,15.3369140625,14.9951171875,15.8251953125,14.7998046875,14.8974609375,14.2626953125,14.1650390625,13.8232421875,12.7490234375,12.1142578125,11.7724609375,11.1865234375,10.6494140625,10.4541015625,9.3310546875,9.4775390625,8.6962890625,8.4033203125,7.4755859375,7.1826171875,6.7919921875,6.4013671875,6.4501953125,7.2314453125,10.3076171875,12.7001953125,13.0908203125,14.0185546875,14.8974609375,15.8251953125,16.1181640625,16.3134765625,16.0205078125,15.1904296875,15.3857421875,15.0439453125,14.1650390625,13.9208984375,12.6513671875,11.7724609375,11.5283203125,11.0888671875,10.2099609375,10.0634765625,9.6728515625,8.6474609375,8.5986328125,8.1591796875,6.9873046875,6.7431640625,5.3271484375,5.2294921875,5.1806640625,4.6923828125,6.0107421875,9.0869140625,10.8447265625,11.1865234375,11.8212890625,12.3583984375,13.4814453125,13.1884765625,13.3349609375,12.7001953125,12.4072265625,11.7724609375,11.6748046875,11.0888671875,10.5517578125,8.9404296875,8.7451171875,8.9892578125,8.2568359375,7.9150390625,6.5966796875,6.6455078125,6.3037109375,5.4736328125,5.0341796875,4.6435546875,3.5205078125,3.2275390625,3.8623046875,5.7666015625,8.4521484375,9.0869140625,9.4287109375,9.7216796875,10.3564453125,10.7958984375,9.5751953125,9.4775390625,10.0634765625,10.2099609375,9.5263671875,8.9892578125,8.3544921875,7.5732421875,7.6708984375,6.8408203125,7.4755859375,6.6455078125,5.6689453125,6.3525390625,5.7177734375,5.3759765625,4.7412109375,4.3017578125,4.5947265625,6.0595703125,9.5263671875,11.0400390625,11.0888671875,12.5048828125,12.8955078125,13.8720703125,13.2861328125,12.6513671875,12.6513671875,13.3837890625,13.1396484375,12.4072265625,11.7236328125,11.4306640625,10.2587890625,10.3564453125,9.5751953125,9.9169921875,8.6962890625,8.3544921875,7.8662109375,7.7685546875,7.0361328125,6.7431640625,6.2060546875,6.1572265625,6.7919921875,9.4775390625,11.8701171875,12.7978515625,13.2373046875,14.2138671875,15.0927734375,16.0205078125,15.6787109375,14.7021484375,14.7998046875,15.3369140625,14.6533203125,14.4580078125,13.6767578125,12.8466796875,11.8212890625,11.0400390625,10.5029296875,10.6494140625,9.9169921875,9.4775390625,9.1845703125,8.6474609375,8.1103515625,7.3291015625,6.6943359375,6.1572265625,5.5712890625,4.9365234375,6.6943359375,9.3310546875,11.2353515625,11.8701171875,13.0908203125,13.5302734375,14.1162109375,14.6533203125,14.4091796875,14.0673828125,13.5302734375,13.3837890625,12.9443359375,11.9189453125,11.1376953125,10.6005859375,9.7216796875,9.2333984375,8.7451171875,7.9150390625,8.1591796875,7.4755859375,6.6943359375,6.6455078125,6.0107421875,5.8642578125,5.0341796875,4.1064453125,3.9111328125,4.2529296875,6.0595703125,8.5498046875,9.2333984375,9.7216796875,9.8193359375,10.9423828125,10.8935546875,11.0888671875,10.3564453125,10.4052734375,10.4052734375,10.3076171875,10.0634765625,8.9892578125,8.0126953125,7.4755859375,8.1103515625,6.5966796875,6.2548828125,5.8642578125,5.5224609375,5.0830078125,5.1806640625,4.1552734375,4.1552734375,3.2275390625,3.0810546875,4.5947265625,7.3291015625,9.1357421875,9.6240234375,10.2099609375,10.5029296875,11.7236328125,10.8935546875,10.6494140625,10.4052734375,10.8935546875,10.6005859375,10.6494140625,9.7216796875,9.1357421875,8.7451171875,7.7685546875,8.1591796875,6.9384765625,7.3291015625,7.1826171875,6.4501953125,6.3037109375,5.6689453125,4.6923828125,4.8388671875,3.8623046875,4.2529296875,4.5458984375,6.8408203125,9.1845703125,9.7705078125,11.1376953125,12.5048828125,12.9931640625,13.8720703125,14.0673828125,13.4814453125,13.7744140625,13.2861328125,13.3837890625,12.7001953125,11.8701171875,11.5771484375,10.3076171875,9.9658203125,10.6005859375,9.4287109375,9.0380859375,8.5986328125,7.8662109375,7.0361328125,6.6943359375,5.9130859375,6.0595703125,5.1806640625,4.8388671875,4.6435546875,4.5458984375,7.0849609375,9.2822265625,10.4052734375,11.0400390625,12.1142578125,13.2861328125,13.2373046875,13.2861328125,12.8466796875,12.7490234375,12.2607421875,12.1142578125,11.4306640625,11.2841796875,9.4775390625,9.2333984375,8.5009765625,9.1845703125,8.1103515625,7.6708984375,7.1337890625,6.3525390625,5.7177734375,4.9853515625,4.6923828125,4.6923828125,3.5205078125,2.9833984375,3.0810546875,3.7646484375,6.4990234375,8.1591796875,8.6474609375,8.7451171875,8.8427734375,10.0146484375,9.8681640625,8.9892578125,9.1357421875,9.7216796875,9.2333984375,9.3798828125,8.4521484375,7.7197265625,6.6455078125,6.1083984375,5.5224609375,5.4248046875,5.4736328125,4.7412109375,4.5947265625,4.5458984375,3.6181640625,3.2275390625,2.9833984375,2.6416015625,3.5205078125,6.5966796875,8.1103515625,8.8916015625,10.1611328125,9.9169921875,11.3330078125,10.8935546875,10.6494140625,10.1611328125,10.8447265625,11.1865234375,9.7705078125,9.6240234375,8.4521484375,7.7197265625,8.2080078125,7.6220703125,7.2802734375,6.4990234375,6.2548828125,5.9130859375,5.2783203125,4.9365234375,4.4482421875,4.6923828125,3.1298828125,3.1298828125,3.1787109375,5.5712890625,8.2080078125,9.0869140625,10.1123046875,10.6982421875,11.0400390625,12.6025390625,12.5048828125,12.0166015625,11.0400390625,11.7236328125,11.2841796875,10.9912109375,9.7216796875,9.1845703125,8.8916015625,8.6962890625,8.1591796875,7.4267578125,6.5966796875,6.1572265625,5.4736328125,5.7177734375,3.9599609375,4.3505859375,3.2763671875,3.7158203125,2.5439453125,2.2509765625,3.8623046875,6.0107421875,8.2080078125,9.1357421875,10.0634765625,10.0634765625,10.8447265625,11.3818359375,11.4306640625,10.6005859375,10.5517578125,10.3564453125,9.6728515625,9.4287109375,8.5009765625,7.7685546875,7.2314453125,6.9873046875,6.4501953125,6.7431640625,5.1806640625,5.0830078125,4.7900390625,4.0087890625,3.6669921875,3.1298828125,2.6416015625,2.1044921875,1.6650390625,2.1044921875,2.8369140625,5.4736328125,6.0107421875,6.5478515625,7.5732421875,7.5244140625,8.2080078125,7.9150390625,7.4267578125,7.0849609375,7.3291015625,7.3291015625,6.9873046875,6.3037109375,5.1318359375,5.0341796875,4.5947265625,4.1064453125,4.3505859375,3.4228515625,2.9345703125,2.6416015625,2.2998046875,2.1533203125,1.8115234375,1.3232421875,1.1767578125,3.2763671875,5.8154296875,6.4013671875,7.0849609375,7.9638671875,8.3544921875,8.8427734375,8.5009765625,7.9150390625,7.7197265625,8.6474609375,8.2568359375,8.3056640625,7.2802734375,6.7919921875,6.7919921875,5.7666015625,5.7666015625,5.2294921875,4.5947265625,4.3017578125,4.0576171875,4.4970703125,3.7646484375,3.5205078125,3.3251953125,2.6904296875,3.6669921875,6.7919921875,8.0615234375,9.1845703125,9.8681640625,10.2099609375,10.2099609375,11.3330078125,10.7958984375,10.8447265625,10.7958984375,11.2353515625,10.5029296875,10.0146484375,9.5751953125,8.7939453125,8.0126953125,7.5244140625,7.3291015625,6.9384765625,5.9130859375,5.9130859375,5.5224609375,4.9365234375,4.5458984375,3.7646484375,3.5693359375,3.6181640625,3.6181640625,5.6201171875,8.5986328125,8.8916015625,10.1123046875,10.8935546875,11.4306640625,12.0166015625,11.6748046875,11.3818359375,11.4794921875,11.0400390625,11.2841796875,10.6982421875,10.4541015625,8.8916015625,8.2568359375,8.1103515625,8.0126953125,7.4755859375,6.9384765625,6.8896484375,6.0107421875,5.4736328125,5.3759765625,4.2041015625,3.5693359375,3.3251953125,2.6904296875,2.6416015625,4.8388671875,7.1826171875,8.0615234375,7.8173828125,8.4521484375,9.4775390625,9.2333984375,9.2822265625,8.5986328125,9.1357421875,8.9892578125,8.4033203125,7.5244140625,7.2802734375,6.6455078125,6.3037109375,5.7177734375,6.1572265625,5.2294921875,4.7900390625,4.3994140625,3.8623046875,2.9345703125,3.1787109375,2.3486328125,2.5439453125,4.1552734375,7.0361328125,8.4521484375,8.9404296875,9.9658203125,10.1123046875,10.6494140625,10.3076171875,9.9658203125,9.8193359375,10.2587890625,10.3564453125,9.3310546875,9.1357421875,8.2568359375,7.4267578125,7.8173828125,7.4755859375,7.1337890625,6.6455078125,5.8154296875,5.5712890625,5.9619140625,5.2294921875,4.3017578125,4.4482421875,4.2529296875,6.1083984375,8.0126953125,9.7216796875,10.6494140625,10.5029296875,11.3818359375,12.6513671875,12.0166015625,12.3095703125,12.8466796875,11.6259765625,12.1630859375,12.1142578125,11.1376953125,10.1611328125,9.8193359375,9.0380859375,8.5009765625,8.4521484375,7.5732421875,7.0849609375,6.7431640625,6.6943359375,5.6201171875,5.2783203125,5.1806640625,4.6923828125,4.0087890625,4.3017578125,6.4990234375,8.7451171875,10.1611328125,10.4541015625,11.3330078125,12.0166015625,12.6025390625,12.4072265625,11.8701171875,12.2119140625,11.5283203125,11.4794921875,10.4541015625,9.8681640625,9.1845703125,8.0615234375,7.3291015625,7.1826171875,7.0361328125,6.2548828125,6.3037109375,5.7666015625,4.9853515625,5.1318359375,4.2529296875,3.6669921875,3.3740234375,3.5693359375,3.1298828125,4.5458984375,6.4990234375,8.0615234375,8.1103515625,8.5498046875,9.0380859375,9.3798828125,9.0869140625,8.8916015625,9.2333984375,9.0380859375,8.8427734375,8.8427734375,8.2568359375,7.5732421875,6.6943359375,6.5478515625,6.5478515625,6.4990234375,6.1572265625,5.3271484375,5.3759765625,5.1806640625,4.1064453125,4.5947265625,4.1064453125,3.5693359375,5.1318359375,7.3779296875,8.4521484375,9.2333984375,9.9658203125,10.6494140625,11.0400390625,11.8701171875,10.7470703125,11.0888671875,11.5283203125,10.9423828125,10.8447265625,10.2099609375,9.6240234375,8.9892578125,8.7939453125,8.4033203125,8.1591796875,7.3779296875,7.0849609375,6.9384765625,7.1826171875,5.8154296875,5.5224609375,5.3271484375,4.5458984375,5.3759765625,4.9853515625,6.1083984375,8.5986328125,10.1611328125,10.6005859375,12.0166015625,13.1396484375,13.1396484375,13.9208984375,13.7255859375,13.7255859375,13.6767578125,14.1650390625,13.1884765625,12.9443359375,11.9677734375,11.5771484375,10.7958984375,11.3818359375,10.4541015625,10.2587890625,9.8681640625,9.5263671875,9.1357421875,8.6474609375,8.4033203125,7.8173828125,6.7919921875,6.3525390625,6.5966796875,5.8154296875,6.0595703125,8.2080078125,10.1123046875,11.7236328125,11.3330078125,12.7001953125,14.3115234375,14.1650390625,14.2626953125,14.3115234375,14.1650390625,14.4580078125,13.6767578125,12.7978515625,12.2119140625,11.0888671875,10.4541015625,10.2587890625,9.9658203125,9.6240234375,9.0869140625,8.8427734375,8.5498046875,7.0361328125,7.0849609375,6.9873046875,5.9619140625,5.3271484375,5.5224609375,6.6455078125,9.2822265625,10.3076171875,10.8935546875,11.2353515625,11.3818359375,11.7236328125,11.5771484375,11.8701171875,11.2841796875,11.5283203125,11.9189453125,11.2353515625,10.6982421875,9.6728515625,9.6728515625,8.7451171875,9.1357421875,8.6962890625,7.9638671875,7.3779296875,7.8662109375,7.5244140625,6.9873046875,6.4501953125,5.8154296875,6.6943359375,9.4287109375,11.4306640625,11.9189453125,11.8701171875,13.6279296875,14.0673828125,14.3603515625,13.7744140625,13.5302734375,13.5302734375,13.4814453125,13.3349609375,12.7978515625,12.7001953125,11.2841796875,10.3564453125,10.1123046875,9.7705078125,9.9169921875,9.3798828125,8.5986328125,8.3544921875,7.5732421875,6.7431640625,6.8896484375,5.6201171875,5.8642578125,6.5478515625,8.0126953125,10.4541015625,11.5283203125,12.3095703125,13.4814453125,14.7509765625,15.3369140625,15.6787109375,15.3369140625,15.5810546875,14.9462890625,14.8974609375,14.1650390625,13.7744140625,12.2119140625,11.6259765625,11.1865234375,11.0888671875,10.0634765625,9.7705078125,8.8916015625,8.6474609375,8.4521484375,7.9150390625,7.2802734375,6.9873046875,6.3037109375,5.3759765625,5.4248046875,5.0830078125,6.6455078125,8.6474609375,10.1123046875,11.2841796875,11.6748046875,13.0419921875,13.3349609375,13.5791015625,12.9931640625,12.5048828125,13.0908203125,12.3583984375,11.7724609375,11.3818359375,10.1611328125,9.6240234375,9.1357421875,8.6474609375,7.5244140625,7.5244140625,7.1826171875,6.8408203125,6.5966796875,6.3037109375,5.4736328125,4.8876953125,4.0576171875,3.9111328125,3.6669921875,4.9365234375,7.5244140625,8.7451171875,8.8916015625,9.5263671875,10.1611328125,9.8681640625,9.5751953125,8.9404296875,9.1357421875,9.7705078125,9.4775390625,8.9892578125,8.6962890625,7.8662109375,8.0126953125,6.9873046875,6.2548828125,6.2548828125,6.0107421875,5.5224609375,5.4248046875,5.0830078125,5.0341796875,4.2041015625,4.2529296875,4.2529296875,6.6943359375,8.7939453125,9.2333984375,9.9169921875,10.6982421875,11.6748046875,11.8212890625,12.3095703125,11.3818359375,10.9912109375,11.6748046875,11.4794921875,10.4052734375,10.2099609375,9.4287109375,9.1357421875,8.5986328125,7.6220703125,8.0126953125,7.1826171875,6.6943359375,6.5966796875,5.2294921875,4.4482421875,4.5458984375,4.0087890625,3.4716796875,4.2041015625,6.6455078125,8.5009765625,9.4287109375,9.9658203125,10.8447265625,12.3095703125,11.7236328125,12.1630859375,11.5771484375,11.8212890625,11.4794921875,10.9423828125,10.5029296875,9.4287109375,9.2333984375,9.1357421875,7.8173828125,7.6708984375,7.4755859375,6.4990234375,6.0595703125,5.6201171875,4.2529296875,4.3505859375,3.4228515625,2.8857421875,2.7392578125,2.1044921875,1.6650390625,1.0302734375,1.6650390625,4.1552734375,5.7666015625,6.7919921875,7.7197265625,7.8662109375,8.7451171875,9.2822265625,8.9404296875,8.8916015625,9.0869140625,8.6962890625,8.2080078125,7.7197265625,6.6943359375,5.9619140625,5.6201171875,5.4248046875,4.8388671875,4.4482421875,4.3994140625,3.6181640625,3.2275390625,2.9833984375,2.6904296875,1.6650390625,1.6162109375,1.3720703125,1.6650390625,4.4482421875,5.5224609375,6.2548828125,5.3759765625,7.1337890625,6.9384765625,7.3779296875,7.2802734375,6.0107421875,6.7431640625,6.6455078125,7.0361328125,5.9130859375,5.8642578125,5.3759765625,5.2783203125,4.2529296875,4.0576171875,3.5205078125,3.4228515625,3.0810546875,2.7880859375,2.2998046875,1.8603515625,2.2021484375,2.2998046875,4.6435546875,6.6943359375,7.3291015625,8.2080078125,9.1845703125,10.6982421875,10.5517578125,9.9658203125,9.8681640625,9.9169921875,9.7705078125,9.7216796875,9.4287109375,8.3056640625,8.6474609375,7.4267578125,7.6708984375,6.5966796875,6.7431640625,6.3525390625,5.5224609375,5.6689453125,4.9365234375,4.3017578125,4.1064453125,4.1064453125,3.2763671875,4.0576171875,5.7666015625,8.1103515625,8.7451171875,9.9658203125,10.5517578125,11.5283203125,11.6259765625,11.8701171875,11.4306640625,11.1376953125,11.2841796875,11.0400390625,10.3564453125,10.1123046875,9.0869140625,8.8427734375,8.0615234375,8.4521484375,7.5244140625,7.2314453125,6.8408203125,6.2548828125,5.9619140625,5.2783203125,4.8388671875,4.3017578125,3.2763671875,3.2763671875,2.7880859375,4.4970703125,5.9619140625,8.1103515625,8.5498046875,9.2333984375,9.4775390625,10.0634765625,10.2099609375,10.1123046875,9.6240234375,9.7216796875,9.4775390625,9.3798828125,8.3544921875,7.5732421875,7.3291015625,6.7919921875,5.9619140625,5.8154296875,5.1806640625,4.7412109375,4.4482421875,3.8623046875,3.0322265625,3.2275390625,1.9580078125,2.4951171875,1.7138671875,2.9345703125,4.7412109375,5.9130859375,7.1337890625,7.0361328125,7.2314453125,7.9150390625,7.5244140625,7.0849609375,7.5244140625,7.1337890625,7.4267578125,7.1826171875,6.4501953125,6.2060546875,5.3271484375,5.1318359375,5.6689453125,5.8154296875,5.0830078125,4.8388671875,4.2041015625,3.7646484375,3.4228515625,2.8857421875,2.5927734375,3.4228515625,5.1318359375,6.5478515625,8.0126953125,9.0869140625,9.6728515625,10.2587890625,10.5029296875,10.0146484375,10.2587890625,9.9169921875,10.0146484375,10.6494140625,10.1611328125,8.9892578125,8.7451171875,8.1103515625,7.4755859375,7.2802734375,6.6455078125,5.5712890625,6.0595703125,4.9853515625,4.6435546875,4.6435546875,3.8623046875,3.6669921875,3.5693359375,3.8623046875,6.1572265625,8.1103515625,9.3310546875,9.3798828125,10.4052734375,11.7236328125,11.5771484375,11.5771484375,11.2841796875,11.0400390625,10.6982421875,10.7470703125,10.4541015625,9.6240234375,9.3310546875,8.9404296875,8.3544921875,8.2568359375,7.5244140625,7.0849609375,6.1572265625,6.2548828125,6.2060546875,5.3759765625,5.0341796875,4.6435546875,3.5693359375,3.8623046875,3.3740234375,4.5947265625,7.2314453125,8.5009765625,8.9404296875,9.7216796875,10.2587890625,10.8447265625,11.3330078125,10.8447265625,10.7470703125,9.7216796875,9.7216796875,9.3310546875,8.6962890625,7.8173828125,7.9150390625,6.9384765625,6.7919921875,6.3525390625,5.5224609375,5.0830078125,4.8388671875,4.1552734375,3.9599609375,3.1787109375,3.2275390625,2.6416015625,2.2998046875,1.7626953125,2.8857421875,5.3759765625,6.4990234375,6.7919921875,7.4755859375,7.6220703125,8.1591796875,7.7685546875,7.3291015625,7.2802734375,7.7197265625,8.0126953125,7.6708984375,7.2802734375,6.2060546875,5.4736328125,5.7177734375,4.9365234375,5.4736328125,4.6435546875,4.3505859375,3.9111328125,3.7646484375,3.0322265625,2.9833984375,3.3740234375,3.0810546875,4.3017578125,7.3291015625,7.9638671875,8.5498046875,8.7939453125,9.6728515625,10.5029296875,9.7705078125,9.5751953125,9.6240234375,9.9658203125,10.4541015625,9.5263671875,8.7451171875,8.1103515625,8.1103515625,7.7685546875,7.5244140625,7.1337890625,6.7431640625,5.8154296875,5.4736328125,4.6923828125,4.0087890625,3.8134765625,3.9599609375,3.5205078125,4.0087890625,6.6455078125,8.9404296875,9.5751953125,9.8681640625,11.1865234375,11.4306640625,12.0166015625,11.5771484375,11.3818359375,11.2353515625,10.7470703125,10.6494140625,10.1123046875,9.8681640625,8.8427734375,8.6474609375,8.0126953125,8.1591796875,7.6708984375,7.5732421875,6.6455078125,6.4501953125,5.6689453125,5.0830078125,4.7412109375,3.8623046875,3.9599609375,3.4716796875,3.5205078125,5.1806640625,7.8173828125,8.3056640625,9.3798828125,9.6240234375,10.1123046875,10.3564453125,10.6982421875,10.4541015625,9.8681640625,9.5263671875,9.6728515625,9.1845703125,8.9404296875,7.5732421875,7.1337890625,6.7919921875,6.1083984375,6.1083984375,5.3271484375,4.8388671875,4.5947265625,4.8388671875,3.8623046875,3.8134765625,3.2763671875,2.4951171875,2.3974609375,2.9833984375,5.2783203125,6.7431640625,7.8173828125,7.8662109375,8.1591796875,8.4033203125,8.5986328125,8.2080078125,8.7451171875,8.4521484375,8.6474609375,7.8173828125,7.4267578125,6.6943359375,6.4990234375,5.8154296875,5.3759765625,4.7900390625,5.4736328125,5.1806640625,4.4970703125
PPG_subj_17,24,F,N,Non-diabetic,101,34.1816,Earlobe,0.185546875,0.185546875,0.185546875,0.185546875,0.185546875,0.185546875,86.1181640625,56.6259765625,55.6982421875,55.2099609375,54.8193359375,53.9404296875,53.5498046875,52.6708984375,51.3037109375,51.2060546875,51.0595703125,51.8408203125,53.8427734375,55.0146484375,55.8935546875,56.8212890625,57.4072265625,58.0419921875,58.0419921875,57.6025390625,57.8466796875,58.3349609375,58.1884765625,58.0419921875,57.8466796875,57.8466796875,56.5771484375,56.9189453125,56.3330078125,55.5517578125,54.1357421875,54.0869140625,53.7939453125,53.0126953125,51.7431640625,50.9619140625,50.6689453125,51.7919921875,53.9404296875,55.9912109375,56.8701171875,57.4560546875,59.5556640625,61.0205078125,60.9228515625,60.9228515625,60.7763671875,61.6064453125,61.7529296875,61.9970703125,61.2158203125,60.7275390625,61.1669921875,60.7763671875,60.7763671875,59.8486328125,59.6533203125,59.2626953125,58.3349609375,57.6025390625,56.7724609375,57.0166015625,55.7958984375,54.8193359375,55.3564453125,57.7978515625,59.4580078125,61.0205078125,62.4365234375,63.6572265625,64.2431640625,65.3662109375,65.9033203125,65.5126953125,65.4638671875,66.5380859375,66.3427734375,66.2939453125,66.3916015625,65.5126953125,65.6591796875,65.0732421875,64.1943359375,64.0966796875,63.7548828125,62.5341796875,62.1923828125,61.7529296875,61.1669921875,60.1416015625,59.5556640625,59.1162109375,58.9697265625,61.0693359375,63.5595703125,64.8291015625,65.5126953125,66.7822265625,67.7099609375,68.0029296875,68.3935546875,68.1982421875,68.0517578125,68.9794921875,68.9306640625,68.4423828125,68.2470703125,68.2958984375,67.8076171875,67.6123046875,67.1728515625,66.3427734375,65.6103515625,65.3173828125,64.7314453125,64.4873046875,62.7783203125,63.0224609375,62.8759765625,64.8291015625,65.9521484375,67.0751953125,67.5634765625,68.8330078125,69.3701171875,69.6630859375,69.0771484375,69.3701171875,70.0537109375,69.9072265625,70.1513671875,69.9072265625,69.1259765625,68.4423828125,67.5146484375,67.0751953125,67.1240234375,65.6591796875,64.9267578125,64.5361328125,64.0478515625,63.8037109375,63.1201171875,63.2666015625,65.0244140625,67.7587890625,68.3447265625,69.5166015625,70.5908203125,72.0556640625,72.1044921875,72.7880859375,72.5927734375,73.5205078125,73.9111328125,74.4970703125,73.7646484375,73.7646484375,73.4228515625,73.0322265625,72.1044921875,72.3486328125,72.6416015625,71.4697265625,70.6396484375,70.2490234375,69.7607421875,69.2236328125,69.8583984375,72.5927734375,73.8134765625,74.5458984375,75.9619140625,78.0615234375,78.7451171875,78.6962890625,79.2822265625,78.8427734375,79.5751953125,79.7216796875,79.8681640625,79.7705078125,79.2333984375,79.0869140625,78.4033203125,78.0126953125,76.9384765625,76.5478515625,75.7177734375,75.8642578125,74.5947265625,73.8623046875,75.3271484375,78.0126953125,78.5986328125,79.7705078125,81.4306640625,82.8466796875,82.9443359375,82.6025390625,83.2861328125,83.4814453125,83.1396484375,83.4326171875,82.9443359375,82.7490234375,82.3095703125,82.1630859375,81.2841796875,80.9423828125,79.9658203125,78.9892578125,78.3056640625,77.6220703125,76.2060546875,76.5478515625,76.9873046875,78.7939453125,80.3564453125,80.3564453125,82.1630859375,83.1396484375,84.2626953125,84.1162109375,83.7255859375,84.2138671875,84.6533203125,84.0673828125,83.9208984375,83.7255859375,82.8466796875,82.4072265625,82.2119140625,81.8701171875,80.8447265625,80.0634765625,79.1357421875,78.7451171875,77.8173828125,77.2314453125,76.2060546875,75.5224609375,76.4013671875,78.2080078125,79.6728515625,80.4541015625,80.1611328125,81.4306640625,81.5771484375,81.2353515625,81.3818359375,81.0888671875,80.4541015625,80.5517578125,79.9658203125,79.4775390625,78.6474609375,77.7685546875,77.8173828125,77.4755859375,75.8642578125,75.2783203125,74.1552734375,73.1787109375,72.3486328125,72.0556640625,71.6162109375,72.2998046875,73.9111328125,75.1806640625,76.6455078125,76.7431640625,77.6220703125,78.7451171875,77.8662109375,78.5498046875,78.2568359375,78.7939453125,78.1591796875,78.1103515625,77.9150390625,76.7431640625,76.5966796875,76.3525390625,75.2294921875,75.0341796875,74.1552734375,73.1298828125,72.5927734375,71.3720703125,71.2255859375,69.7119140625,68.6376953125,67.9541015625,69.6630859375,71.5673828125,73.0322265625,73.7158203125,75.3271484375,76.6943359375,77.3779296875,78.0126953125,77.5244140625,78.1103515625,77.7197265625,78.6962890625,77.8662109375,78.0126953125,76.9384765625,76.9873046875,76.4990234375,75.5224609375,74.3017578125,74.3017578125,73.3740234375,72.9345703125,72.0556640625,70.3466796875,69.5166015625,68.9306640625,67.5146484375,66.5380859375,65.9521484375,65.0244140625,65.5126953125,67.6611328125,69.2236328125,69.7607421875,70.8349609375,71.6650390625,72.5439453125,73.0810546875,72.4462890625,72.6904296875,73.1298828125,72.3974609375,72.3486328125,71.9091796875,71.3232421875,71.0791015625,70.2001953125,69.5166015625,68.7841796875,67.7587890625,67.5146484375,66.1474609375,64.4384765625,64.4873046875,62.3876953125,61.1669921875,60.5322265625,59.2626953125,58.0419921875,57.2607421875,57.0166015625,58.5791015625,60.5810546875,61.5576171875,62.5341796875,63.9013671875,64.3408203125,64.4384765625,64.7802734375,64.7314453125,64.1943359375,64.5361328125,64.4873046875,64.7314453125,64.2919921875,63.3154296875,63.7060546875,62.7294921875,62.4853515625,61.8017578125,60.5810546875,60.1416015625,59.8486328125,58.4814453125,58.4814453125,57.0654296875,55.6982421875,55.4541015625,56.7236328125,58.0419921875,59.3603515625,60.4833984375,60.2880859375,61.0205078125,61.8994140625,61.1669921875,61.4111328125,61.2646484375,61.6552734375,61.6064453125,61.3134765625,60.6298828125,60.0439453125,59.4091796875,59.0673828125,58.3837890625,58.3349609375,57.2119140625,56.4306640625,55.7958984375,54.8193359375,54.1845703125,52.8662109375,52.8173828125,54.0869140625,55.7958984375,57.3095703125,58.6767578125,59.4580078125,60.7763671875,61.6552734375,61.7529296875,62.0458984375,61.9482421875,61.8505859375,61.2646484375,61.7041015625,61.8505859375,61.3134765625,61.9482421875,61.1181640625,60.6787109375,60.1904296875,59.4580078125,58.6767578125,58.4326171875,57.3095703125,57.2119140625,56.0888671875,55.2587890625,54.5263671875,55.5029296875,57.3583984375,59.5556640625,60.7763671875,61.8994140625,62.8271484375,64.2919921875,65.7568359375,65.5126953125,65.0732421875,65.3662109375,65.9521484375,65.9033203125,65.3173828125,65.5126953125,65.1708984375,64.6337890625,64.0966796875,64.0966796875,63.7060546875,62.9248046875,62.0947265625,61.6552734375,60.6298828125,60.0927734375,59.1650390625,58.4326171875,57.4560546875,57.2119140625,59.1162109375,60.7763671875,63.4130859375,63.6083984375,64.6826171875,66.1474609375,67.2705078125,67.2216796875,67.6123046875,67.0263671875,67.4169921875,67.7587890625,67.5634765625,67.0751953125,67.3681640625,66.9287109375,66.4404296875,66.0009765625,65.5615234375,65.0244140625,64.7802734375,63.8525390625,63.2177734375,62.5341796875,61.4599609375,60.6298828125,60.4833984375,60.6787109375,61.8505859375,63.6572265625,64.8291015625,65.4638671875,65.6103515625,66.4892578125,67.2216796875,66.7822265625,66.7333984375,66.3427734375,66.9775390625,66.8798828125,66.5869140625,66.4404296875,65.6103515625,64.9755859375,65.2685546875,63.7548828125,63.6572265625,63.1201171875,62.8271484375,61.5576171875,60.7275390625,60.1416015625,60.4833984375,60.9716796875,63.0712890625,63.9990234375,65.4150390625,66.2939453125,67.8564453125,67.8564453125,69.1259765625,68.4912109375,68.3447265625,69.0283203125,69.4189453125,68.5888671875,68.6865234375,67.7587890625,67.8564453125,67.6611328125,67.2705078125,66.4404296875,66.3427734375,65.3173828125,64.9755859375,63.8037109375,63.1201171875,62.9736328125,61.3623046875,62.0947265625,64.2919921875,66.8798828125,68.0517578125,69.0771484375,70.2001953125,71.6162109375,72.3974609375,72.3974609375,73.8134765625,72.9833984375,73.0810546875,73.6669921875,74.3505859375,73.5205078125,73.0810546875,72.9345703125,72.7880859375,72.2998046875,72.1044921875,71.3232421875,70.2978515625,69.9560546875,69.5166015625,69.3701171875,68.1982421875,67.0263671875,66.6357421875,66.4892578125,67.5146484375,70.1025390625,71.7626953125,72.6416015625,74.3017578125,74.8876953125,76.4013671875,76.6943359375,76.6943359375,76.7919921875,77.5732421875,77.8662109375,77.7197265625,77.0361328125,77.1337890625,76.8896484375,76.8408203125,75.8154296875,75.7177734375,75.3759765625,74.9853515625,73.7158203125,73.2763671875,72.4462890625,71.7138671875,70.8837890625,69.9560546875,69.0283203125,69.4189453125,70.9814453125,72.8369140625,74.2041015625,74.9365234375,76.0107421875,77.2314453125,77.1826171875,77.8173828125,76.9384765625,77.9150390625,77.4267578125,78.2568359375,77.1337890625,76.7919921875,76.7919921875,76.2548828125,76.1572265625,75.9619140625,74.7900390625,74.2041015625,73.8134765625,72.7880859375,71.8603515625,71.0791015625,70.7373046875,70.0048828125,70.6396484375,72.4951171875,74.2041015625,74.8388671875,75.4736328125,76.3525390625,77.3291015625,77.4267578125,77.6220703125,77.0361328125,77.5244140625,77.3291015625,76.8896484375,77.0361328125,76.8896484375,76.3525390625,75.9619140625,75.7177734375,74.7412109375,73.7158203125,72.3974609375,72.4462890625,71.4208984375,70.2490234375,69.9560546875,70.0537109375,69.0283203125,71.1767578125,73.0322265625,74.8876953125,75.8642578125,76.8896484375,78.9404296875,79.1357421875,79.4775390625,79.4287109375,80.7470703125,80.6494140625,80.0146484375,80.1611328125,80.2587890625,79.8681640625,79.4775390625,79.2333984375,78.6474609375,77.5732421875,77.7197265625,77.5244140625,75.7666015625,75.2783203125,74.8388671875,73.7158203125,73.3740234375,71.5673828125,71.3232421875,71.8115234375,72.3486328125,74.8388671875,76.5966796875,76.8896484375,79.1357421875,79.7705078125,80.8935546875,80.7958984375,81.0400390625,80.9423828125,81.6259765625,81.8212890625,81.4306640625,81.7236328125,80.5517578125,80.8447265625,80.0146484375,79.7216796875,78.9892578125,78.4521484375,77.8173828125,77.0361328125,76.0595703125,75.5712890625,74.6923828125,73.9111328125,72.7392578125,72.3974609375,71.1767578125,70.4443359375,71.2255859375,73.0322265625,74.8388671875,75.6201171875,76.4990234375,77.6708984375,78.2568359375,79.0380859375,78.7939453125,79.1845703125,78.7939453125,78.6962890625,78.6474609375,78.5009765625,78.0126953125,77.5244140625,76.9873046875,76.7919921875,76.1572265625,75.4248046875,74.4482421875,74.1064453125,73.4228515625,72.9833984375,71.6650390625,70.1513671875,69.3701171875,69.2236328125,70.1025390625,71.7626953125,72.6416015625,73.1787109375,73.9599609375,74.3017578125,74.9365234375,74.4482421875,74.3505859375,74.3505859375,74.7412109375,74.3505859375,74.1064453125,74.0576171875,73.7158203125,72.7392578125,72.1044921875,72.3486328125,71.4208984375,70.4443359375,69.0771484375,68.5888671875,67.7587890625,66.8310546875,65.8544921875,66.3916015625,67.6123046875,69.5654296875,71.2255859375,72.4951171875,73.3251953125,74.0087890625,75.6201171875,75.7666015625,75.0830078125,75.4736328125,75.2783203125,76.1572265625,74.9365234375,75.5712890625,75.1318359375,74.5947265625,74.5947265625,74.2529296875,73.5693359375,73.0810546875,72.5439453125,72.1044921875,70.4931640625,69.2236328125,69.3701171875,68.1494140625,67.8564453125,69.5654296875,72.4951171875,73.8623046875,74.9853515625,76.1572265625,77.4755859375,78.4033203125,78.8427734375,79.1845703125,79.1845703125,79.4775390625,80.0634765625,79.9658203125,79.8193359375,79.6728515625,78.8427734375,78.7939453125,78.5009765625,77.8662109375,76.9873046875,76.7919921875,75.9619140625,75.3271484375,74.4970703125,74.0576171875,73.4716796875,72.0556640625,71.4697265625,72.8369140625,74.2529296875,75.6689453125,76.7431640625,78.1103515625,79.7216796875,80.5029296875,80.7958984375,80.9912109375,81.0400390625,81.4306640625,81.6259765625,81.1865234375,81.5283203125,81.0400390625,80.2587890625,80.3564453125,80.2587890625,79.0380859375,78.7451171875,78.0126953125,77.4267578125,77.0849609375,75.9130859375,75.2783203125,73.7646484375,72.7880859375,72.2021484375,72.3974609375,74.5458984375,76.1572265625,76.6455078125,77.8662109375,78.5009765625,79.1357421875,79.3310546875,79.2822265625,78.9404296875,79.5263671875,79.1845703125,78.6962890625,78.6962890625,78.1103515625,77.8662109375,76.8896484375,76.5478515625,76.0595703125,75.1318359375,74.6923828125,73.9111328125,72.9833984375,72.3486328125,71.4208984375,70.7861328125,70.8837890625,72.8857421875,74.4482421875,74.7412109375,76.1083984375,76.7919921875,77.6220703125,77.7685546875,78.2568359375,78.2080078125,77.6708984375,78.1591796875,77.9638671875,77.8173828125,77.3779296875,77.0849609375,76.9384765625,76.0595703125,75.1318359375,75.2783203125,74.7900390625,73.3740234375,73.0810546875,72.2021484375,71.0791015625,70.7861328125,70.4443359375,72.4462890625,73.6181640625,75.2294921875,76.2060546875,77.7685546875,78.9404296875,79.7216796875,80.4541015625,80.5029296875,80.4541015625,80.8447265625,80.6494140625,81.2841796875,80.8447265625,80.4541015625,80.1123046875,79.4775390625,79.1357421875,78.9892578125,77.8662109375,77.5244140625,76.4501953125,76.1572265625,75.1318359375,74.7900390625,73.9111328125,72.8369140625,72.3486328125,74.2529296875,75.3759765625,77.0361328125,78.0126953125,79.6728515625,80.4541015625,81.4794921875,82.0166015625,81.8701171875,81.5283203125,82.4560546875,82.4072265625,81.9677734375,81.9677734375,81.9677734375,81.0888671875,80.6005859375,79.7216796875,80.4052734375,79.1845703125,78.4521484375,77.9638671875,76.6455078125,75.9619140625,75.3271484375,74.5947265625,73.3740234375,72.9345703125,72.7392578125,74.0576171875,76.0595703125,76.0107421875,77.5732421875,78.6962890625,78.9892578125,79.5751953125,79.9169921875,78.9892578125,80.0146484375,80.1123046875,79.8681640625,79.4287109375,78.6474609375,78.5986328125,78.5009765625,77.5732421875,77.0361328125,76.1083984375,76.1083984375,75.5712890625,74.1064453125,73.7646484375,72.5927734375,71.9091796875,71.5673828125,72.4951171875,74.0087890625,74.8876953125,75.8154296875,76.5478515625,77.6708984375,77.3779296875,77.5732421875,77.1826171875,78.1103515625,78.0615234375,77.9150390625,77.4755859375,76.4990234375,76.3037109375,75.7177734375,75.2294921875,75.4736328125,74.4482421875,73.0322265625,72.4951171875,71.8603515625,70.9814453125,70.6396484375,69.1748046875,69.6142578125,70.4931640625,72.6416015625,73.6181640625,74.9853515625,76.4501953125,78.0615234375,77.8662109375,78.4521484375,78.8916015625,79.0869140625,78.9404296875,79.0869140625,79.2822265625,78.5009765625,78.3544921875,77.9638671875,77.8662109375,76.7919921875,76.7431640625,75.9619140625,74.8876953125,74.3505859375,73.9111328125,72.9345703125,71.9091796875,71.2255859375,70.1513671875,69.4189453125,71.1767578125,73.0322265625,73.8623046875,75.9130859375,76.2060546875,77.5732421875,79.2822265625,79.2822265625,79.6728515625,79.3310546875,79.0380859375,79.4775390625,79.3798828125,79.1357421875,79.0869140625,78.5498046875,77.4267578125,77.5244140625,77.1826171875,76.6943359375,75.8154296875,75.3759765625,74.9853515625,74.0087890625,72.3486328125,72.1533203125,70.6396484375,69.4677734375,69.6142578125,70.2978515625,72.2021484375,73.4228515625,73.7646484375,75.5224609375,76.4990234375,77.0849609375,76.8408203125,77.1826171875,76.3037109375,77.1337890625,77.4755859375,77.2314453125,76.3037109375,76.7431640625,76.1572265625,75.4248046875,74.5458984375,73.9111328125,73.8134765625,72.7880859375,71.9091796875,71.7138671875,70.7861328125,69.5166015625,68.6376953125,68.3935546875,69.2724609375,70.4931640625,71.7138671875,72.7880859375,73.8134765625,73.8623046875,74.1552734375,73.8134765625,73.5205078125,74.1064453125,73.9111328125,73.6181640625,72.9833984375,72.8857421875,72.0068359375,72.1533203125,71.3720703125,70.6396484375,70.4931640625,69.7119140625,68.7353515625,67.6611328125,67.6611328125,66.5380859375,66.7333984375,66.9287109375,68.5888671875,70.2978515625,70.9326171875,71.9091796875,73.4716796875,74.4482421875,74.8388671875,75.0341796875,74.5947265625,74.8388671875,75.1806640625,74.5947265625,75.2783203125,74.6435546875,74.4970703125,74.1064453125,73.0810546875,73.0810546875,71.7626953125,72.0068359375,70.6884765625,70.4931640625,69.7119140625,68.9794921875,68.6376953125,69.2724609375,71.2744140625,72.9833984375,73.8623046875,75.2783203125,76.5966796875,77.8173828125,78.5009765625,78.4033203125,78.9404296875,79.1357421875,79.6240234375,79.8681640625,79.5751953125,79.3798828125,78.8427734375,78.8916015625,77.8662109375,77.2802734375,77.7197265625,76.3525390625,76.0107421875,74.6923828125,74.5947265625,74.2529296875,73.4716796875,73.7646484375,75.2294921875,77.1337890625,78.4521484375,79.7216796875,80.3564453125,81.7236328125,81.9677734375,82.4560546875,82.7490234375,82.7490234375,83.0419921875,82.9443359375,82.8955078125,82.7001953125,82.6025390625,82.2119140625,81.3330078125,81.7724609375,80.9423828125,80.3076171875,79.2333984375,78.7451171875,78.0615234375,77.5244140625,76.4501953125,75.7177734375,77.0849609375,78.6474609375,80.6494140625,80.5029296875,81.9189453125,81.9189453125,82.3095703125,82.4560546875,82.7001953125,82.3583984375,82.2119140625,82.1142578125,82.6513671875,82.2119140625,81.4306640625,81.1865234375,80.4541015625,79.5751953125,78.8916015625,78.1591796875,77.8662109375,77.1337890625,76.4501953125,76.1572265625,75.9130859375,77.6708984375,79.2333984375,79.4775390625,80.7958984375,82.3583984375,82.8466796875,83.0419921875,83.1884765625,82.8955078125,83.4814453125,83.7255859375,83.0419921875,82.5537109375,82.4560546875,82.0166015625,81.1865234375,80.6982421875,80.6982421875,79.3798828125,79.2822265625,78.0615234375,77.6708984375,76.6455078125,76.2548828125,76.2548828125,77.6708984375,80.4541015625,81.2353515625,82.6513671875,83.7744140625,85.0927734375,86.1669921875,86.7529296875,86.4599609375,87.6806640625,86.9970703125,87.4853515625,87.2412109375,87.2412109375,86.8505859375,85.8251953125,85.4345703125,85.4833984375,84.9951171875,84.4580078125,83.4814453125,82.6513671875,81.6259765625,81.4306640625,81.1865234375,80.2587890625,80.7470703125,82.9443359375,84.4580078125,85.6787109375,87.1923828125,88.3642578125,89.5361328125,90.2685546875,90.8544921875,90.5126953125,90.6591796875,90.7080078125,91.2939453125,91.1962890625,90.3662109375,90.1708984375,89.3896484375,88.9013671875,88.2666015625,88.0712890625,87.1923828125,86.5576171875,85.9716796875,84.7998046875,84.1162109375,83.2373046875,82.5537109375,81.5771484375,81.8212890625,83.3349609375,84.3115234375,85.6298828125,86.5576171875,87.7294921875,88.2666015625,88.4619140625,88.7548828125,88.0224609375,88.9013671875,89.0478515625,88.3154296875,88.5107421875,87.7783203125,86.7529296875,86.8505859375,85.8251953125,84.9462890625,84.5556640625,83.3837890625,82.8466796875,82.1630859375,81.3330078125,79.4775390625,79.7216796875,79.5263671875,80.7958984375,81.8701171875,83.1396484375,84.1162109375,84.6533203125,85.8251953125,86.0205078125,86.0205078125,86.1181640625,86.5087890625,86.9970703125,86.1181640625,85.7275390625,85.0439453125,85.5322265625,84.1650390625,83.2373046875,82.7490234375,81.6748046875,81.3330078125,80.1611328125,79.6728515625,78.7939453125,77.7197265625,76.4501953125,76.1572265625,75.4248046875,76.4013671875,77.6708984375,79.2333984375,80.6494140625,81.7236328125,83.4326171875,84.3115234375,84.9951171875,84.8974609375,84.5556640625,85.5810546875,85.3857421875,84.9951171875,84.9462890625,84.5556640625,83.1884765625,82.7978515625,82.3583984375,81.4794921875,80.5517578125,79.9169921875,78.8427734375,78.3056640625,77.2802734375,76.3037109375,75.5712890625,74.4482421875,73.3251953125,72.6904296875,72.8369140625,74.7900390625,76.0595703125,77.4755859375,78.1103515625,80.1611328125,79.9169921875,81.6748046875,81.7724609375,81.7236328125,81.3818359375,81.5771484375,81.6748046875,81.3818359375,80.5517578125,79.9169921875,79.9169921875,78.8427734375,78.1591796875,77.4267578125,77.0849609375,75.7666015625,74.5458984375,73.7646484375,72.6416015625,72.0068359375,70.9814453125,70.3466796875,70.4931640625,71.5185546875,72.9345703125,73.4716796875,74.3505859375,75.3759765625,75.8154296875,75.5712890625,75.8642578125,75.1806640625,75.1318359375,75.3271484375,74.8876953125,74.7900390625,73.7646484375,72.9833984375,72.4951171875,72.2998046875,70.9326171875,70.9326171875,70.1513671875,68.3935546875,68.1005859375,67.0263671875,65.8544921875,65.0244140625,65.1708984375,66.1474609375,67.5146484375,68.2470703125,68.9794921875,70.5419921875,71.7138671875,72.0068359375,71.8603515625,71.5673828125,72.1533203125,71.8115234375,71.3720703125,71.6650390625,71.3232421875,70.5419921875,70.2978515625,69.6142578125,68.7841796875,67.5146484375,67.1728515625,66.3427734375,65.4150390625,65.0732421875,64.3408203125,63.2177734375,61.8017578125,61.2158203125,62.7294921875,64.4873046875,65.8544921875,66.7822265625,68.4912109375,68.9306640625,69.6630859375,70.1513671875,70.4931640625,70.9326171875,70.0048828125,70.7373046875,70.2978515625,70.1025390625,69.1748046875,68.8818359375,68.2470703125,67.5634765625,67.0751953125,66.0986328125,65.6103515625,63.9013671875,63.7060546875,62.6318359375,61.8017578125,60.6787109375,59.7998046875,59.3603515625,59.7509765625,62.9248046875,63.5107421875,64.5849609375,64.9755859375,66.2451171875,66.7822265625,67.3193359375,67.1240234375,67.2705078125,67.1240234375,67.3193359375,66.2451171875,66.4892578125,65.9033203125,65.6103515625,65.7568359375,64.8779296875,64.3408203125,63.2177734375,62.0947265625,61.4111328125,60.7275390625,59.9462890625,59.2626953125,57.7001953125,57.6025390625,56.8701171875,57.5537109375,59.2138671875,59.6044921875,60.4833984375,61.3134765625,61.9970703125,62.2412109375,62.9248046875,61.9970703125,62.9248046875,62.6806640625,62.1435546875,62.0458984375,61.6064453125,60.6298828125,60.4833984375,59.9951171875,59.4091796875,58.2373046875,57.9443359375,57.4560546875,57.0654296875,55.3076171875,54.4775390625,53.8916015625,54.4775390625,56.1865234375,58.0419921875,58.2373046875,59.7509765625,59.8974609375,60.8251953125,60.8740234375,60.8251953125,60.9228515625,60.4833984375,61.0205078125,61.3134765625,60.2392578125,60.4345703125,59.2626953125,59.0673828125,58.3837890625,58.6767578125,57.7490234375,56.8701171875,56.3330078125,55.9423828125,54.6728515625,54.2822265625,53.8916015625,55.1611328125,57.0654296875,58.5791015625,59.6044921875,60.9716796875,62.0458984375,63.2666015625,64.0478515625,63.7060546875,63.8525390625,63.9501953125,64.6826171875,63.9013671875,63.2666015625,63.5107421875,62.8271484375,63.0712890625,62.7294921875,61.8505859375,61.2646484375,61.1181640625,59.7021484375,59.1162109375,58.4814453125,57.6513671875,57.5048828125,59.4580078125,61.1181640625,61.9970703125,63.3642578125,64.6337890625,65.9521484375,67.0263671875,67.5146484375,67.3681640625,67.6123046875,67.6611328125,67.7099609375,67.4169921875,66.9775390625,66.8310546875,66.4404296875,66.1474609375,65.5126953125,65.0244140625,64.7314453125,64.6337890625,63.3154296875,62.5341796875,61.8994140625,61.5576171875,60.6787109375,60.9228515625,63.5107421875,65.0732421875,65.9033203125,66.8798828125,68.1005859375,68.9306640625,69.1748046875,69.2724609375,69.3701171875,70.0048828125,69.5166015625,69.9560546875,69.4189453125,69.5166015625,68.8818359375,69.2236328125,68.4912109375,67.3681640625,67.8076171875,67.0751953125,66.3427734375,65.6591796875,64.2919921875,63.9501953125,64.0478515625,66.0498046875,67.1728515625,68.2470703125,69.4677734375,69.4677734375,70.5908203125,70.4931640625,71.2744140625,70.5908203125,71.1767578125,70.9326171875,70.9814453125,70.5419921875,69.8095703125,70.2490234375,69.1748046875,68.4912109375,68.1005859375,67.1728515625,66.9775390625,65.7080078125,64.9755859375,64.7314453125,64.9267578125,66.7333984375,67.9052734375,69.9560546875,70.7373046875,71.6162109375,72.4951171875,73.7158203125,73.4716796875,73.6181640625,73.7158203125,73.9599609375,73.7646484375,73.6181640625,73.5205078125,73.0322265625,72.9345703125,72.2509765625,71.3232421875,70.8349609375,70.6884765625,69.7607421875,69.1259765625,67.8076171875,67.1240234375,67.3193359375,69.5654296875,71.1279296875,73.1787109375,74.3505859375,75.3759765625,76.7919921875,77.4267578125,78.0615234375,78.0615234375,77.7685546875,78.1591796875,78.3544921875,77.6220703125,77.7685546875,76.9873046875,76.5966796875,76.4501953125,75.9130859375,75.0341796875,74.6435546875,73.5205078125,73.3251953125,72.4951171875,70.7861328125,70.2490234375,69.8095703125,70.5908203125,72.5927734375,73.4228515625,73.9111328125,76.2060546875,77.6708984375,79.3798828125,79.0380859375,79.5263671875,79.1357421875,79.0869140625,79.2333984375,80.1123046875,79.1357421875,78.9404296875,78.3544921875,77.6708984375,77.1337890625,76.6455078125,76.4013671875,75.6689453125,74.8876953125,74.4482421875,73.5693359375,72.7392578125,72.3974609375,71.0302734375,71.1279296875,72.2509765625,73.9111328125,75.6689453125,75.9619140625,77.6220703125,78.6474609375,79.5751953125,79.4775390625,79.8681640625,79.8681640625,79.9169921875,80.2099609375,79.8193359375,79.5263671875,79.9169921875,78.9404296875,78.5009765625,78.1103515625,77.9150390625,76.6943359375,76.4501953125,75.3271484375,74.5458984375,73.6181640625,72.9833984375,73.1298828125,74.5947265625,76.2548828125,76.6455078125,77.9150390625,78.8916015625,79.3798828125,80.4541015625,80.2587890625,80.4052734375,80.2587890625,80.6494140625,80.8935546875,81.0888671875,79.6728515625,79.7216796875,79.3798828125,78.5009765625,78.3056640625,77.1337890625,76.8896484375,75.7177734375,74.6923828125,74.0087890625,72.8857421875,72.9345703125,73.0810546875,75.8642578125,77.5244140625,78.5986328125,79.5751953125,81.1376953125,82.6513671875,82.9931640625,83.2861328125,83.4814453125,83.3837890625,83.4326171875,83.6767578125,83.2861328125,82.4560546875,82.0654296875,81.1865234375,81.1865234375,80.7470703125,79.7216796875,79.0869140625,78.2080078125,77.5732421875,76.4990234375,75.6201171875,74.4970703125,74.0576171875,76.0595703125,77.9150390625,79.8193359375,80.5029296875,82.5537109375,83.4814453125,84.7509765625,85.4833984375,85.2392578125,85.3857421875,85.4345703125,85.8251953125,85.2880859375,84.5068359375,84.1650390625,84.0185546875,83.4814453125,82.4072265625,81.4794921875,81.0888671875,79.9169921875,79.6240234375,78.3544921875,77.4267578125,75.9130859375,74.7412109375,73.8134765625,73.1298828125,74.2529296875,76.0107421875,77.7197265625,78.7451171875,79.9169921875,80.8447265625,82.7001953125,82.6025390625,82.5048828125,82.6513671875,82.7490234375,83.0419921875,82.8466796875,82.1630859375,81.4306640625,81.3818359375,81.3330078125,79.7705078125,79.3798828125,78.5498046875,78.1591796875,76.7431640625,75.6201171875,75.2783203125,74.1552734375,72.7392578125,72.3486328125,72.4951171875,73.6181640625,75.5712890625,75.8642578125,76.7919921875,77.5244140625,78.9892578125,77.9150390625,78.9404296875,78.0615234375,77.8173828125,78.0126953125,76.5478515625,77.3291015625,76.6455078125,76.1083984375,75.2783203125,75.1806640625,73.7646484375,72.7880859375,71.9580078125,71.0302734375,70.6396484375,69.4189453125,69.1259765625,67.6611328125,68.3447265625,70.9326171875,72.1044921875,72.7880859375,74.3994140625,74.9365234375,75.9619140625,76.3037109375,76.4501953125,76.2060546875,76.2548828125,76.7919921875,76.3525390625,75.6201171875,75.9130859375,74.6435546875,74.2529296875,73.2763671875,73.0810546875,72.2021484375,72.0068359375,70.8837890625,70.1025390625,69.0283203125,67.6611328125,66.8310546875,66.7822265625,69.5654296875,71.9091796875,72.8857421875,74.0087890625,75.8154296875,77.6220703125,78.2080078125,77.9638671875,78.2568359375,78.8427734375,78.8427734375,78.8916015625,79.4287109375,78.8916015625,78.6962890625,77.2802734375,77.2314453125,76.4990234375,75.6689453125,74.4970703125,74.0087890625,73.2763671875,72.1044921875,72.0068359375,70.4443359375,69.6142578125,68.3935546875,68.8330078125,71.6650390625,73.4228515625,74.6435546875,75.6201171875,76.8408203125,77.9638671875,79.2822265625,78.8916015625,79.2822265625,78.9404296875,79.7705078125,79.0869140625,78.9892578125,78.4033203125,78.1591796875,77.7685546875,77.1337890625,75.9619140625,76.1083984375,74.9365234375,74.2041015625,73.3251953125,73.0322265625,71.2744140625,70.4931640625,68.9306640625,68.4423828125,69.1748046875,71.1767578125,72.5439453125,73.0810546875,73.2763671875,75.0830078125,75.5712890625,75.5712890625,75.3271484375,74.9853515625,75.6689453125,75.2783203125,74.7900390625,74.0087890625,74.1064453125,73.1787109375,72.3974609375,71.6650390625,71.0302734375,70.3955078125,68.8818359375,68.0517578125,67.2216796875,66.8798828125,65.2197265625,65.5615234375,66.1962890625,68.2958984375,70.0048828125,70.4931640625,72.2998046875,73.0810546875,73.3740234375,73.8134765625,74.4482421875,73.8623046875,74.0576171875,74.1064453125,73.7158203125,73.7158203125,72.7880859375,72.6416015625,72.0556640625,70.5908203125,70.2490234375,70.0537109375,68.5888671875,68.7841796875,67.6123046875,66.7822265625,65.6591796875,64.6826171875,64.9267578125,67.6611328125,69.3212890625,71.3232421875,72.2998046875,73.9599609375,75.2294921875,76.2548828125,76.1083984375,76.1083984375,77.0361328125,77.4267578125,77.0361328125,78.0126953125,76.6943359375,76.3037109375,76.4013671875,75.3271484375,75.0341796875,74.6435546875,73.7158203125,72.7392578125,70.9814453125,70.2490234375,69.9072265625,68.6865234375,67.9541015625,67.0751953125,67.0751953125,68.5400390625,70.9814453125,72.6416015625,73.3740234375,74.9365234375,76.3037109375,77.9638671875,77.9150390625,77.9638671875,78.4033203125,78.6474609375,78.3544921875,78.9404296875,77.6220703125,77.2314453125,77.0849609375,76.4013671875,76.0107421875,74.4482421875,73.6181640625,73.5205078125,72.2509765625,71.4697265625,70.2001953125,69.2724609375,68.6865234375,67.1728515625,66.2939453125,65.7080078125,66.0009765625,67.5146484375,69.7607421875,70.0048828125,70.8349609375,71.9580078125,73.0810546875,72.9833984375,72.9345703125,72.8369140625,73.5693359375,72.8369140625,72.0068359375,72.1533203125,71.2744140625,71.1279296875,70.6396484375,69.8583984375,68.3447265625,67.7587890625,67.0263671875,66.6845703125,65.0732421875,64.4384765625,63.3642578125,62.3388671875,62.3876953125,63.8525390625,64.9755859375,66.8310546875,67.2216796875,68.3447265625,69.1259765625,70.7861328125,70.3955078125,70.0537109375,70.2978515625,70.2490234375,70.6884765625,70.2490234375,69.4677734375,69.4677734375,68.2470703125,67.2705078125,67.8076171875,66.6845703125,66.0009765625,64.9755859375,64.0966796875,62.9736328125,62.0458984375,61.6064453125,60.0439453125,59.3115234375,59.2138671875,61.4111328125,63.8037109375,64.9755859375,65.6103515625,67.4169921875,68.9794921875,70.2490234375,70.4443359375,70.1025390625,70.4443359375,70.7373046875,71.0302734375,70.2978515625,70.0537109375,69.7607421875,69.0283203125,68.9306640625,67.5634765625,67.5634765625,66.1474609375,65.7080078125,64.8291015625,63.8037109375,63.0224609375,62.4365234375,60.2392578125,59.3603515625,58.9208984375,57.7490234375,57.6513671875,59.7998046875,61.8505859375,62.8271484375,63.9013671875,66.0986328125,66.5869140625,67.6123046875,67.9541015625,68.1005859375,67.5146484375,67.8076171875,68.1494140625,67.5146484375,66.8798828125,66.6357421875,66.2451171875,65.8056640625,64.8779296875,64.4384765625,64.2919921875,62.8759765625,62.3388671875,60.8251953125,60.1904296875,59.2626953125,58.0419921875,56.8701171875,56.0888671875,55.0146484375,56.5283203125,58.6279296875,60.0439453125,60.2392578125,61.6552734375,61.4599609375,62.7294921875,62.0947265625,62.0458984375,61.9970703125,62.6806640625,62.3876953125,61.8994140625,61.2646484375,60.6787109375,60.3857421875,58.6767578125,58.6279296875,58.1396484375,57.1142578125,55.9912109375,55.5029296875,54.4287109375,53.3544921875,52.5244140625,51.9873046875,52.1826171875,54.3310546875,56.3818359375,57.4072265625,57.4072265625,58.6767578125,59.2138671875,59.9951171875,59.7998046875,59.9462890625,59.8486328125,59.8486328125,59.4580078125,59.6533203125,59.0673828125,57.9931640625,57.7490234375,57.2119140625,56.3330078125,55.8447265625,54.6240234375,54.0380859375,53.5986328125,52.0849609375,51.2548828125,50.3759765625,49.9853515625,51.4990234375,53.5498046875,55.8447265625,56.5283203125,58.2861328125,58.2861328125,60.5810546875,60.7763671875,61.3623046875,61.5087890625,61.2158203125,61.6552734375,61.7041015625,61.2646484375,60.7763671875,60.8740234375,60.6787109375,59.5068359375,58.8720703125,58.4326171875,58.1396484375,57.0166015625,56.5771484375,55.6494140625,55.0146484375,53.5009765625,52.6220703125,52.2802734375,51.2060546875,52.8173828125,55.6494140625,56.9189453125,58.3837890625,59.3603515625,61.1669921875,62.3388671875,62.2900390625,62.4365234375,62.7783203125,62.6318359375,62.7294921875,62.7294921875,62.5830078125,62.0947265625,61.2158203125,60.6787109375,60.6787109375,60.2392578125,59.0673828125,59.0673828125,57.7978515625,57.0654296875,56.7236328125,55.4541015625,54.7216796875,53.3544921875,52.5244140625,52.1337890625,51.4501953125,54.0869140625,55.7470703125,56.9677734375,57.7001953125,57.8466796875,59.4580078125,59.7021484375,59.8486328125,59.7021484375,59.7998046875,59.8486328125,59.9462890625,59.8486328125,59.4091796875,58.2861328125,57.4072265625,57.7490234375,57.1630859375,56.4306640625,55.5517578125,54.9658203125,54.6240234375,53.3056640625,52.6708984375,51.4501953125,50.6201171875,51.2548828125,53.4033203125,55.1611328125,55.8935546875,55.8935546875,57.1142578125,58.1396484375,58.0419921875,57.5537109375,57.8466796875,58.1884765625,58.1884765625,58.2373046875,57.7978515625,57.3095703125,56.6748046875,56.0400390625,55.9423828125,55.1611328125,54.2333984375,53.9892578125,53.2080078125,51.8408203125,51.6943359375,50.4736328125,50.0341796875,50.1806640625,52.9638671875,55.1611328125,55.7958984375,57.6025390625,57.9443359375,59.7509765625,60.8251953125,60.5810546875,60.9228515625,60.8740234375,61.0693359375,61.5087890625,61.2158203125,61.2646484375,61.1181640625,60.4833984375,60.2880859375,60.0927734375,59.5068359375,58.8232421875,58.2861328125,57.5537109375,56.4794921875,56.2353515625,55.3076171875,55.1123046875,54.1845703125,54.9658203125,56.9677734375,58.9697265625,60.0927734375,61.8017578125,63.3154296875,64.5849609375,65.0732421875,65.5126953125,65.6103515625,65.6591796875,66.4892578125,66.5869140625,66.3916015625,66.6357421875,65.7568359375,66.2939453125,64.9267578125,65.2685546875,63.9990234375,64.0478515625,63.0224609375,62.6318359375,61.5087890625,61.0693359375,59.8486328125,59.3603515625,58.2373046875,58.0419921875,59.0673828125,60.9716796875,62.9248046875,63.9013671875,64.8291015625,66.3427734375,67.5146484375,67.7587890625,67.5146484375,67.6123046875,68.1494140625,67.8564453125,68.0029296875,67.8564453125,67.2705078125,67.8564453125,66.5869140625,66.8310546875,66.0498046875,65.5615234375,65.0244140625,64.8291015625,63.7548828125,62.9736328125,62.1435546875,60.8251953125,59.9462890625,59.6533203125,61.2158203125,63.2666015625,64.7314453125,65.0244140625,65.3662109375,67.0751953125,67.1728515625,67.3681640625,67.6611328125,68.1494140625,67.8564453125,67.8564453125,67.4658203125,67.0751953125,66.4892578125,66.0986328125,65.8056640625,65.9033203125,64.6826171875,64.3896484375,63.5107421875,62.3876953125,61.6064453125,61.4599609375,60.2392578125,59.8974609375,60.9228515625,64.0478515625,64.9755859375,66.3916015625,67.2216796875,69.1259765625,69.8095703125,71.0791015625,70.4443359375,70.8349609375,71.6650390625,72.1044921875,72.3486328125,72.1533203125,71.7626953125,71.0302734375,71.3232421875,70.5908203125,70.6884765625,70.2490234375,69.0283203125,68.6376953125,67.8564453125,68.0517578125,66.3427734375,65.3662109375,64.8291015625,64.1455078125,64.5361328125,66.8798828125,68.9794921875,70.7373046875,72.4462890625,73.7646484375,75.6689453125,76.0595703125,76.1572265625,76.3037109375,77.0849609375,77.4755859375,77.4755859375,77.3779296875,77.7197265625,77.3779296875,77.0361328125,76.8896484375,76.2548828125,75.0341796875,74.8876953125,74.5458984375,73.6181640625,73.0322265625,71.9580078125,71.4208984375,70.3955078125,69.8583984375,68.5888671875,67.9541015625,67.9541015625,69.7119140625,71.0791015625,72.7880859375,73.8623046875,74.7900390625,76.8896484375,77.1337890625,77.5732421875,77.5732421875,77.1826171875,77.9150390625,78.2080078125,77.7685546875,77.6708984375,77.4755859375,76.9384765625,76.4501953125,76.2548828125,75.0830078125,74.5458984375,74.3505859375,73.5693359375,72.7392578125,71.5673828125,71.1767578125,69.7119140625,69.3701171875,69.3701171875,71.1279296875,73.1787109375,74.4482421875,74.8388671875,75.5712890625,76.1572265625,76.6455078125,76.6455078125,75.9619140625,76.4013671875,76.9384765625,76.1083984375,76.1572265625,75.3759765625,75.3759765625,74.8388671875,73.7158203125,73.6669921875,72.4951171875,72.2998046875,71.3720703125,70.4443359375,69.3212890625,68.3935546875,67.7099609375,67.2705078125,68.6376953125,71.3232421875,72.5439453125,73.7646484375,75.0830078125,75.9619140625,77.4267578125,77.0849609375,77.1337890625,77.7197265625,77.7197265625,78.2080078125,78.1591796875,78.2568359375,77.2314453125,77.3291015625,77.2314453125,76.4501953125,76.4013671875,75.2294921875,74.3994140625,74.0576171875,73.3740234375,72.3974609375,71.9091796875,70.4443359375,69.3212890625,68.9794921875,68.2958984375,70.1025390625,72.4462890625,73.9111328125,75.3759765625,76.4013671875,78.0615234375,79.3310546875,79.0869140625,79.5263671875,79.7216796875,80.2099609375,80.5029296875,80.2587890625,80.2587890625,80.0634765625,79.6728515625,78.9404296875,78.5498046875,77.4755859375,77.5244140625,76.6455078125,75.8154296875,75.0341796875,74.5947265625,73.4228515625,72.6416015625,71.7138671875,70.5908203125,69.5654296875,69.3212890625,69.7119140625,71.4208984375,73.1787109375,74.2529296875,75.4736328125,76.4013671875,77.6708984375,78.1103515625,77.9638671875,78.3056640625,78.6474609375,78.6474609375,78.4033203125,77.3291015625,78.0615234375,77.3291015625,77.1826171875,76.5966796875,75.9619140625,75.3271484375,74.6923828125,74.3505859375,72.8857421875,72.8857421875,71.3232421875,70.6884765625,70.1025390625,69.4677734375,69.8583984375,72.4951171875,74.1552734375,73.8134765625,75.2783203125,75.3271484375,76.4013671875,76.3525390625,76.2060546875,76.0107421875,76.4013671875,75.9130859375,76.0107421875,75.9619140625,74.9853515625,74.2041015625,73.8134765625,72.7880859375,73.0810546875,71.9580078125,70.7373046875,70.2490234375,69.8095703125,68.6865234375,68.9306640625,67.2705078125,68.1005859375,70.6396484375,71.5673828125,73.3251953125,73.8623046875,75.0830078125,76.3037109375,76.9873046875,77.7685546875,77.5732421875,77.5244140625,78.2080078125,78.0126953125,77.8662109375,78.0615234375,77.2314453125,76.5478515625,76.4990234375,76.9873046875,75.5224609375,75.3271484375,74.3994140625,74.1064453125,72.8369140625,71.7138671875,71.2744140625,70.2978515625,69.1748046875,68.7841796875,69.4189453125,72.4462890625,73.3740234375,74.8388671875,76.4501953125,77.6220703125,78.4521484375,80.3076171875,79.8193359375,79.4775390625,79.8681640625,80.7958984375,80.6494140625,80.3076171875,79.7216796875,79.8681640625,79.2333984375,78.6474609375,78.1591796875,77.6708984375,76.9384765625,76.7919921875,76.2060546875,74.4482421875,73.9599609375,72.9833984375,71.8115234375,71.2744140625,70.0537109375,69.7119140625,68.7353515625,70.5908203125,72.4462890625,74.1552734375,74.4482421875,76.1083984375,76.5966796875,78.1591796875,78.4033203125,78.0615234375,78.7451171875,78.5498046875,78.6962890625,79.4287109375,78.8427734375,78.2080078125,77.0361328125,77.3779296875,76.7431640625,76.2060546875,75.8642578125,74.6435546875,74.1064453125,73.1298828125,73.1787109375,72.2021484375,70.7861328125,69.8583984375,69.3701171875,69.9072265625,72.0556640625,72.7392578125,73.5205078125,74.3994140625,74.8388671875,75.4736328125,76.2060546875,75.6201171875,75.4736328125,75.8154296875,75.7177734375,75.7177734375,75.2294921875,74.8876953125,74.3505859375,74.0087890625,73.7158203125,72.8857421875,71.7626953125,71.1279296875,70.7373046875,70.0048828125,68.4423828125,67.9541015625,67.5634765625,68.9306640625,70.4931640625,72.1044921875,73.0810546875,74.3505859375,75.8154296875,76.1572265625,77.3291015625,76.4990234375,76.8408203125,76.8896484375,77.2314453125,77.1826171875,76.5478515625,76.4990234375,76.0107421875,76.1083984375,75.5224609375,74.3505859375,74.2529296875,73.4716796875,72.5927734375,72.3486328125,71.4697265625,70.8837890625,69.5166015625,69.0771484375,68.9794921875,70.6396484375,72.9345703125,74.7412109375,74.7900390625,76.3525390625,78.0126953125,79.0869140625,79.6240234375,79.6240234375,80.7958984375,81.0400390625,80.7958984375,81.2353515625,80.5029296875,80.5517578125,79.4775390625,79.3310546875,79.1357421875,78.5498046875,77.5732421875,76.9873046875,76.4501953125,75.4736328125,74.2041015625,73.8623046875,72.7392578125,71.8115234375,70.6884765625,70.5908203125,70.3466796875,72.8369140625,74.6435546875,75.1318359375,76.6455078125,77.7685546875,79.2822265625,79.7216796875,80.4052734375,79.6240234375,80.0146484375,80.2587890625,80.0146484375,80.5029296875,79.6728515625,79.9169921875,78.8427734375,78.2568359375,77.2802734375,77.2314453125,76.5966796875,75.6689453125,74.5458984375,73.7646484375,73.1787109375,72.3486328125,71.7626953125,70.5908203125,69.3701171875,69.4189453125,71.2744140625,72.6904296875,72.8857421875,73.7158203125,74.7412109375,75.1318359375,75.8154296875,75.1806640625,75.2783203125,75.5224609375,75.5224609375,75.8154296875,74.9365234375,74.8876953125,73.8134765625,74.0087890625,73.0810546875,72.8369140625,72.0068359375,70.9326171875,69.7119140625,69.2724609375,68.1494140625,67.6611328125,66.3916015625,65.9521484375,65.9033203125,66.5380859375,69.0283203125,69.3701171875,70.0048828125,71.4208984375,71.6162109375,72.8369140625,72.3486328125,72.4951171875,72.6416015625,72.9345703125,72.5927734375,72.6904296875,72.0068359375,71.9580078125,70.8837890625,70.4931640625,70.4443359375,69.9560546875,68.6376953125,68.4423828125,68.2470703125,67.0751953125,66.4892578125,65.2197265625,64.2919921875,63.7060546875,63.4130859375,64.0966796875,66.7333984375,67.2705078125,68.6376953125,70.2978515625,71.5673828125,72.6416015625,73.3251953125,72.3974609375,73.4716796875,73.3740234375,73.6181640625,74.2041015625,73.6669921875,73.6181640625,72.6904296875,73.1298828125,72.2998046875,72.0068359375,71.4208984375,70.3466796875,69.9072265625,68.9794921875,68.5400390625,67.4658203125,66.6845703125,65.8544921875,64.8291015625,64.1455078125,64.3408203125,64.0966796875,66.8798828125,68.5400390625,69.0283203125,71.0302734375,71.5673828125,73.0322265625,73.5205078125,73.4228515625,73.3251953125,73.6181640625,73.7646484375,73.8623046875,74.2529296875,73.1298828125,72.4462890625,72.7880859375,72.2509765625,71.6162109375,71.0791015625,69.9560546875,69.6630859375,69.1259765625,68.3935546875,68.1005859375,66.6357421875,65.8544921875,65.1220703125,63.9013671875,64.5849609375,65.8544921875,66.8798828125,67.9052734375,68.6865234375,69.7607421875,70.6884765625,70.8837890625,70.5908203125,70.4931640625,70.4931640625,70.4931640625,70.3466796875,69.6630859375,69.5654296875,69.2724609375,68.5400390625,67.8564453125,67.9052734375,66.7822265625,66.5869140625,65.1220703125,65.4638671875,63.8037109375,63.2177734375,62.4853515625,61.9970703125,62.6318359375,64.3896484375,65.9033203125,66.4404296875,67.3193359375,67.7099609375,69.8583984375,69.6630859375,69.2724609375,68.9306640625,69.6630859375,69.5166015625,69.9072265625,69.1748046875,68.8330078125,68.0029296875,67.9052734375,67.7099609375,66.8798828125,66.3916015625,64.8291015625,64.8291015625,64.2431640625,63.3642578125,62.9248046875,61.9970703125,61.2158203125,60.2392578125,61.1181640625,63.2666015625,64.7314453125,66.3916015625,67.0751953125,68.0517578125,70.4931640625,70.8349609375,70.2978515625,70.9814453125,70.6396484375,71.1279296875,71.1767578125,71.3232421875,71.2255859375,70.7373046875,70.8349609375,70.0048828125,69.7607421875,69.0283203125,68.5400390625,67.7099609375,67.3681640625,66.3427734375,65.5615234375,64.6826171875,64.0966796875,63.2666015625,61.8505859375,61.8505859375,63.9013671875,65.4150390625,67.0263671875,67.8076171875,68.6376953125,70.2001953125,71.4208984375,71.3720703125,71.3232421875,72.2509765625,71.3720703125,72.4951171875,71.9091796875,71.4697265625,70.7861328125,70.9326171875,71.0791015625,70.0048828125,69.8095703125,69.0283203125,69.0771484375,68.2470703125,67.0263671875,66.4892578125,65.7568359375,64.3408203125,64.0478515625,62.5830078125,62.5830078125,62.7294921875,64.8291015625,66.2939453125,66.6845703125,67.9541015625,68.4423828125,68.7353515625,69.6142578125,69.6142578125,69.3212890625,69.0283203125,68.8818359375,68.9794921875,69.2236328125,68.4423828125,67.8564453125,67.1728515625,66.9775390625,66.1474609375,65.5126953125,65.5615234375,64.5849609375,63.6083984375,63.1689453125,62.0947265625,60.7763671875,60.5322265625,61.7529296875,63.9013671875,64.6337890625,65.2685546875,66.3916015625,67.1240234375,67.7587890625,67.7099609375,68.1982421875,67.4169921875,68.1494140625,67.8564453125,67.7099609375,67.6123046875,66.7822265625,66.7333984375,66.4892578125,65.8056640625,65.2685546875,64.7314453125,63.2177734375,62.9736328125,62.3876953125,61.4599609375,60.7763671875,59.9951171875,59.5068359375,60.5322265625,63.2666015625,64.5849609375,65.5126953125,67.1240234375,67.8076171875,69.2724609375,68.9794921875,69.7607421875,70.5908203125,69.9072265625,70.2001953125,70.6396484375,69.6142578125,69.5654296875,70.0537109375,69.6630859375,69.0771484375,68.8330078125,67.8076171875,67.6123046875,66.8310546875,65.7568359375,64.9267578125,64.4384765625,63.7060546875,61.7529296875,62.4853515625,61.9482421875,63.8525390625,65.6591796875,67.8076171875,68.3447265625,70.0537109375,70.8837890625,72.0068359375,72.3974609375,72.2021484375,72.5439453125,72.6904296875,72.5927734375,72.5439453125,72.3974609375,72.2509765625,71.7626953125,71.1279296875,71.5185546875,70.3955078125,69.5654296875,69.7607421875,68.8330078125,68.3447265625,67.3193359375,66.0009765625,65.7568359375,64.8291015625,64.1943359375,64.5849609375,66.5869140625,68.2958984375,68.7353515625,69.1259765625,70.3466796875,71.2255859375,71.5673828125,71.3232421875,70.9326171875,71.3232421875,71.6650390625,71.1279296875,71.2744140625,71.6650390625,70.5419921875,70.2001953125,69.9072265625,69.5654296875,69.0771484375,68.3935546875,67.6123046875,66.6845703125,66.3916015625,65.4638671875,64.6826171875,65.0732421875,66.3916015625,68.6865234375,69.9072265625,70.3466796875,71.0302734375,72.1044921875,72.6416015625,72.4951171875,72.7392578125,72.4462890625,72.5439453125,72.5927734375,71.9580078125,71.5673828125,71.3720703125,70.5419921875,70.6884765625,69.9072265625,69.5166015625,68.5400390625,68.4423828125,67.6123046875,65.9521484375,66.0009765625,65.6103515625,64.4384765625,65.7080078125,67.4658203125,68.9794921875,70.2490234375,71.6162109375,72.9833984375,74.6923828125,74.6435546875,75.1318359375,75.5224609375,75.4248046875,76.4013671875,75.9619140625,75.4248046875,76.2060546875,75.3759765625,74.4482421875,74.5947265625,73.7646484375,73.3740234375,73.6181640625,72.3486328125,71.7138671875,70.3466796875,70.0048828125,69.1259765625,68.3447265625,67.7099609375,67.9052734375,69.8583984375,71.9091796875,72.6904296875,73.9599609375,75.0830078125,76.3525390625,77.8662109375,77.9150390625,77.9150390625,78.0126953125,78.5498046875,78.4521484375,78.8427734375,78.8427734375,78.0126953125,77.7685546875,77.4755859375,76.8408203125,76.6943359375,76.1572265625,75.3759765625,75.2294921875,74.0087890625,73.0322265625,72.3974609375,72.1044921875,70.7861328125,70.9326171875,70.1513671875,71.7626953125,73.4228515625,74.3994140625,75.4736328125,76.4990234375,76.6943359375,77.8662109375,77.5244140625,77.7197265625,77.4755859375,77.6708984375,77.1337890625,77.4267578125,77.6708984375,76.3525390625,76.3037109375,75.8154296875,75.4248046875,75.2783203125,74.5947265625,73.9599609375,72.7880859375,72.5439453125,71.4208984375,70.9326171875,69.8583984375,69.8583984375,71.3232421875,73.0810546875,74.8388671875,75.6689453125,76.5478515625,77.4267578125,78.1591796875,78.7451171875,77.7197265625,78.9404296875,78.9404296875,79.2333984375,78.6962890625,78.3056640625,77.3779296875,78.1103515625,76.9873046875,76.6455078125,76.7431640625,76.2548828125,74.7900390625,74.9365234375,74.0087890625,72.7880859375,72.4951171875,71.4208984375,70.8349609375,69.6142578125,69.6630859375,71.3232421875,73.6669921875,75.4736328125,76.9384765625,78.1591796875,78.5986328125,80.8935546875,80.3564453125,81.2841796875,80.7470703125,81.4306640625,81.9189453125,81.8212890625,81.7236328125,81.6748046875,81.0888671875,80.5517578125,80.6005859375,79.8681640625,79.7705078125,79.1357421875,78.7939453125,78.4033203125,77.8173828125,76.7919921875,76.3037109375,74.9365234375,74.5458984375,73.2275390625,73.0810546875,74.9853515625,76.7919921875,78.6962890625,80.0634765625,82.0166015625,82.8955078125,84.2138671875,84.7998046875,84.8974609375,85.8251953125,86.0693359375,86.0205078125,86.2646484375,86.6064453125,85.4345703125,86.0205078125,85.8251953125,85.4345703125,84.5068359375,83.7255859375,84.5068359375,83.6279296875,82.8466796875,82.3583984375,81.3818359375,80.8935546875,80.0146484375,79.2822265625,79.1845703125,80.8935546875,82.5048828125,83.4814453125,84.0185546875,85.3857421875,86.3134765625,86.0693359375,86.8505859375,86.5087890625,86.6064453125,86.8017578125,87.2412109375,86.2158203125,86.4111328125,86.0205078125,85.0927734375,85.2392578125,83.9208984375,83.3837890625,83.1884765625,82.8466796875,81.6259765625,80.7958984375,80.1123046875,79.5263671875,79.1845703125,80.6005859375,82.8466796875,83.8232421875,84.6533203125,85.9228515625,86.9970703125,87.6806640625,88.2177734375,87.9248046875,87.9248046875,88.3642578125,88.6572265625,88.1689453125,87.9736328125,87.4365234375,87.3876953125,86.6064453125,85.9716796875,85.3857421875,84.9951171875,83.4326171875,83.6767578125,82.1630859375,81.5283203125,80.9912109375,79.9658203125,79.1357421875,78.1591796875,80.2099609375,81.7724609375,82.6513671875,84.3603515625,86.0205078125,87.0458984375,88.4130859375,88.3154296875,88.8525390625,89.0966796875,89.6826171875,89.1455078125,89.4384765625,88.0712890625,88.6083984375,88.1201171875,87.4853515625,86.6552734375,85.8251953125,85.7275390625,84.2138671875,83.9208984375,82.7978515625,82.2119140625,80.6494140625,79.8681640625,79.0869140625,78.1103515625,77.2802734375,77.0849609375,77.3291015625,79.3798828125,80.7958984375,81.8212890625,82.4560546875,83.4326171875,84.3603515625,85.3857421875,85.0927734375,84.7998046875,84.7509765625,84.7021484375,84.8486328125,84.1650390625,83.8232421875,83.0908203125,81.9677734375,82.4560546875,81.3818359375,80.5029296875,80.0146484375,78.8916015625,78.3544921875,77.4267578125,76.4990234375,75.7177734375,74.0087890625,73.2763671875,72.7880859375,73.4716796875,75.2294921875,76.3525390625,76.1572265625,77.1337890625,77.3291015625,77.4755859375,77.5732421875,76.9873046875,76.4990234375,77.2802734375,76.9384765625,76.8408203125,76.0107421875,74.8876953125,74.9853515625,74.3017578125,73.4228515625,72.8369140625,71.5185546875,71.1767578125,70.4443359375,69.6630859375,68.4912109375,67.7587890625,68.1494140625,68.0517578125,69.5166015625,70.6396484375,71.8115234375,72.4462890625,72.9833984375,74.5458984375,74.4482421875,74.4970703125,73.6669921875,74.3505859375,73.8623046875,73.9599609375,73.9111328125,73.5693359375,72.8369140625,72.1044921875,71.1767578125,71.0791015625,69.7119140625,69.3701171875,68.7353515625,67.8564453125,67.3681640625,66.1474609375,65.8056640625,64.3408203125,64.7802734375,65.0732421875,67.6611328125,68.6376953125,69.6142578125,70.5419921875,71.6650390625,72.8857421875,72.8369140625,73.1298828125,73.0810546875,73.2275390625,73.5205078125,73.0810546875,72.1044921875,72.3486328125,71.9580078125,71.6162109375,70.9326171875,70.1513671875,69.5166015625,69.2236328125,68.6376953125,67.1240234375,66.3916015625,64.9267578125,64.5849609375,63.9990234375,62.8759765625,62.2900390625,61.1669921875,61.1181640625,62.5341796875,64.4873046875,65.4150390625,66.4892578125,67.5634765625,68.7353515625,69.0771484375,69.3212890625,69.7119140625,69.6142578125,70.4931640625,69.6142578125,69.4677734375,69.4189453125,69.1259765625,68.5400390625,68.0517578125,67.4169921875,67.0263671875,66.4892578125,65.3662109375,64.8291015625,63.7548828125,62.3388671875,61.8994140625,61.6552734375,61.3134765625,60.8251953125,62.8271484375,64.3408203125,64.8779296875,65.0732421875,66.1962890625,66.1962890625,66.8310546875,66.1474609375,66.0009765625,65.9521484375,66.0986328125,65.8056640625,65.7568359375,65.9033203125,65.1220703125,64.3896484375,64.2919921875,63.9013671875,63.1201171875,61.7041015625,61.6064453125,60.9228515625,60.0927734375,59.5556640625,59.5556640625,58.9208984375,61.9482421875,61.9482421875,63.3154296875,65.0244140625,65.7568359375,65.8544921875,66.9775390625,67.2216796875,67.0751953125,67.5634765625,67.5634765625,66.8798828125,66.7822265625,66.5869140625,66.2939453125,65.4150390625,65.7080078125,65.3662109375,64.8779296875,64.0478515625,63.7060546875,62.7783203125,61.7529296875,61.1181640625,60.8251953125,59.4580078125,59.4091796875,59.8486328125,62.0947265625,63.6572265625,65.4638671875,66.6357421875,67.7099609375,69.1748046875,69.7607421875,69.3212890625,69.9072265625,70.3955078125,70.1513671875,70.3466796875,70.4443359375,70.1025390625,70.1513671875,69.3212890625,69.2236328125,68.5888671875,68.5400390625,67.7099609375,67.0751953125,66.8798828125,65.9521484375,65.1220703125,64.0966796875,63.3154296875,62.9248046875,61.8505859375,62.8759765625,64.8779296875,66.1962890625,67.2216796875,68.3447265625,69.2724609375,70.8349609375,71.0791015625,71.2255859375,71.9091796875,71.7626953125,72.2509765625,72.1044921875,71.9580078125,72.0556640625,71.8603515625,71.3232421875,70.8837890625,70.7373046875,69.9560546875,69.4189453125,68.5888671875,68.3935546875,67.8564453125,66.5869140625,65.9521484375,65.4150390625,64.6826171875,64.6337890625,66.5380859375,68.3447265625,68.3447265625,69.3701171875,70.2001953125,70.9326171875,71.0302734375,71.0302734375,71.1279296875,70.9326171875,70.7373046875,70.8837890625,70.0048828125,70.2978515625,70.2001953125,69.8095703125,69.4677734375,69.1748046875,68.1982421875,67.4169921875,66.9775390625,65.6591796875,64.6337890625,64.5361328125,63.2177734375,63.6083984375,65.5615234375,67.0751953125,68.4423828125,69.4677734375,70.2978515625,71.1767578125,71.9091796875,72.3486328125,72.1533203125,72.2998046875,72.5927734375,72.9345703125,72.9345703125,72.2021484375,72.1044921875,72.1044921875,71.0791015625,71.1279296875,70.1025390625,69.7607421875,69.2724609375,68.4423828125,67.8564453125,67.2216796875,66.3427734375,65.7080078125,65.2197265625,65.3173828125,67.3681640625,69.1748046875,70.5419921875,71.3720703125,72.3486328125,74.3505859375,75.2294921875,75.1318359375,75.4736328125,75.4248046875,75.5712890625,75.4736328125,75.4736328125,75.2783203125,75.2294921875,74.8388671875,74.9853515625,73.9599609375,73.9111328125,73.7646484375,72.0556640625,71.6162109375,71.1767578125,70.2001953125,69.7119140625,68.5888671875,68.3935546875,66.9287109375,67.4658203125,68.6376953125,71.6162109375,72.5439453125,73.1787109375,74.3017578125,75.2783203125,76.3525390625,76.1083984375,76.7919921875,76.3525390625,76.7919921875,76.9384765625,76.4013671875,76.4501953125,76.6455078125,75.9130859375,75.1806640625,75.2294921875,74.3994140625,74.3994140625,73.4228515625,72.9345703125,72.2021484375,70.7861328125,70.3466796875,69.6630859375,68.6376953125,67.8076171875,68.3935546875,69.8583984375,71.1767578125,72.5439453125,72.5927734375,73.3251953125,74.1552734375,74.4482421875,74.5947265625,74.1552734375,74.3505859375,75.0341796875,74.2529296875,74.0576171875,73.3251953125,73.0810546875,73.0810546875,73.0810546875,72.1044921875,71.0791015625,70.6884765625,69.9072265625,69.6630859375,68.3935546875,67.8564453125,66.5869140625,66.9287109375,67.5634765625,70.0048828125,71.3720703125,72.1044921875,73.1787109375,74.1064453125,75.3759765625,74.7412109375,74.9365234375,75.3271484375,75.3271484375,74.9853515625,75.9619140625,74.6923828125,75.0830078125,74.8876953125,73.8623046875,74.1064453125,72.9833984375,73.1298828125,71.4208984375,71.7626953125,70.2490234375,69.7607421875,68.5888671875,68.2470703125,67.1240234375,67.2216796875,69.3212890625,71.5185546875,73.1298828125,74.2041015625,75.9130859375,76.3037109375,77.6220703125,78.1103515625,78.1591796875,77.8662109375,78.3056640625,78.4033203125,78.2080078125,77.7685546875,78.3544921875,77.8662109375,77.9150390625,76.4501953125,76.9873046875,76.2060546875,75.3759765625,74.7900390625,73.9111328125,73.9111328125,72.7880859375,71.8603515625,70.9326171875,70.3466796875,70.7861328125,72.1533203125,73.7158203125,75.6689453125,76.4990234375,77.8173828125,78.7451171875,80.1611328125,80.3076171875,79.9658203125,80.3076171875,80.6005859375,80.9423828125,80.4052734375,80.9912109375,80.4541015625,80.2587890625,79.6240234375,79.8681640625,78.7451171875,77.8662109375,77.3291015625,77.1337890625,76.1572265625,75.7666015625,74.4482421875,73.4716796875,72.8857421875,72.8369140625,72.7880859375,74.9853515625,76.5966796875,77.3291015625,77.9150390625,78.7939453125,79.5751953125,79.4775390625,79.6728515625,78.8916015625,79.4775390625,79.6240234375,79.0380859375,78.6474609375,78.2080078125,78.2080078125,77.7197265625,76.7431640625,76.1572265625,75.3759765625,75.1806640625,74.7900390625,73.9599609375,72.9833984375,71.5673828125,71.3720703125,72.4462890625,74.0576171875,75.7177734375,76.5478515625,77.7197265625,78.6474609375,80.0146484375,80.4052734375,79.7705078125,79.7216796875,80.1123046875,80.3564453125,79.9169921875,79.1845703125,79.4287109375,79.2333984375,78.7451171875,77.9150390625,77.9150390625,76.9873046875,76.5478515625
