PPG_subj_10,56,F,N,Prediabetic,121,34.0052,Forehead,0.185546875,0.185546875,0.185546875,0.185546875,0.185546875,0.185546875,91.6845703125,-82.3388671875,-82.6806640625,-80.9716796875,-79.4580078125,-77.2119140625,-75.0146484375,-74.3310546875,-73.7451171875,-73.7451171875,-73.2568359375,-73.5009765625,-72.6708984375,-72.9638671875,-73.6962890625,-72.9150390625,-73.4033203125,-74.1845703125,-74.0869140625,-75.3076171875,-75.6982421875,-75.6982421875,-76.4306640625,-76.5771484375,-76.8701171875,-78.0908203125,-78.0419921875,-78.3837890625,-78.7255859375,-80.0439453125,-79.7998046875,-79.4091796875,-77.8955078125,-75.6494140625,-74.2822265625,-72.2314453125,-70.7666015625,-69.9365234375,-69.6923828125,-69.6923828125,-69.7900390625,-69.4970703125,-69.4970703125,-69.8876953125,-70.3759765625,-70.4248046875,-71.0107421875,-71.4501953125,-72.5732421875,-72.7197265625,-73.2080078125,-72.8662109375,-74.4287109375,-73.5498046875,-74.5751953125,-75.4541015625,-75.9912109375,-76.3330078125,-76.7236328125,-76.5771484375,-76.5283203125,-75.2587890625,-73.8916015625,-71.7919921875,-70.0341796875,-68.8134765625,-67.9345703125,-67.6904296875,-68.3251953125,-67.7880859375,-67.5927734375,-68.0810546875,-68.4716796875,-68.8623046875,-69.0576171875,-69.3017578125,-70.2783203125,-71.0107421875,-71.2060546875,-71.9384765625,-72.8173828125,-73.3544921875,-73.5009765625,-74.3798828125,-75.8935546875,-76.2353515625,-76.2841796875,-77.2607421875,-77.4072265625,-77.4072265625,-76.1376953125,-74.4775390625,-72.5732421875,-71.1083984375,-69.6435546875,-69.2041015625,-69.2041015625,-69.0576171875,-69.1064453125,-69.3994140625,-69.4970703125,-68.9111328125,-70.1806640625,-71.2060546875,-71.3525390625,-71.8896484375,-73.1591796875,-73.3056640625,-74.2822265625,-74.4287109375,-74.8193359375,-75.3076171875,-75.9423828125,-76.6748046875,-77.1630859375,-77.7978515625,-78.4814453125,-77.5537109375,-77.3583984375,-75.6005859375,-74.3798828125,-72.3779296875,-70.9619140625,-69.8876953125,-69.6923828125,-69.5947265625,-68.9599609375,-68.9111328125,-68.6181640625,-69.0576171875,-69.3994140625,-69.8876953125,-70.9130859375,-71.1083984375,-72.2802734375,-72.1826171875,-72.6708984375,-73.8916015625,-73.7939453125,-73.9892578125,-75.1611328125,-75.6494140625,-76.1865234375,-76.4306640625,-77.3095703125,-77.2119140625,-76.6259765625,-75.3076171875,-74.5751953125,-72.9638671875,-70.4736328125,-69.2041015625,-68.3740234375,-68.4228515625,-68.5693359375,-68.3251953125,-68.6181640625,-68.6669921875,-69.0576171875,-68.5205078125,-69.5947265625,-70.4248046875,-70.6689453125,-70.9619140625,-72.0849609375,-72.6708984375,-73.1103515625,-73.9404296875,-74.7705078125,-75.1611328125,-75.6005859375,-75.6982421875,-76.6748046875,-76.7724609375,-77.2607421875,-76.4306640625,-75.4541015625,-73.3056640625,-71.6455078125,-70.5224609375,-68.7646484375,-67.8369140625,-68.5205078125,-68.2763671875,-67.7392578125,-67.9833984375,-67.7880859375,-68.2763671875,-68.9599609375,-69.0576171875,-69.8388671875,-70.0341796875,-70.5712890625,-71.8896484375,-72.3779296875,-73.5009765625,-73.5009765625,-74.3310546875,-74.6240234375,-75.5029296875,-76.0400390625,-76.9189453125,-77.3095703125,-76.8212890625,-76.8701171875,-75.6982421875,-73.9892578125,-72.2314453125,-70.0341796875,-69.6435546875,-68.1298828125,-68.5205078125,-68.5205078125,-68.4716796875,-68.9111328125,-68.2763671875,-69.3505859375,-69.3994140625,-70.2783203125,-71.1083984375,-72.2314453125,-72.3779296875,-73.3056640625,-73.6962890625,-74.9169921875,-74.9658203125,-74.9658203125,-76.1376953125,-76.7236328125,-77.6513671875,-77.9443359375,-77.9443359375,-78.5791015625,-77.9931640625,-76.7724609375,-75.4541015625,-73.6474609375,-72.5244140625,-71.6943359375,-70.6689453125,-71.0107421875,-70.3759765625,-70.5712890625,-70.4248046875,-71.3037109375,-71.4990234375,-71.9384765625,-72.3291015625,-73.5009765625,-73.9892578125,-74.0380859375,-73.9404296875,-75.6982421875,-75.9912109375,-76.6259765625,-77.1630859375,-77.2607421875,-77.9931640625,-78.9208984375,-79.0185546875,-80.1904296875,-79.6044921875,-79.1650390625,-77.7001953125,-75.2099609375,-73.6474609375,-71.5966796875,-70.8154296875,-70.2783203125,-70.0341796875,-70.5712890625,-70.8642578125,-69.9365234375,-70.0830078125,-70.9130859375,-70.9619140625,-71.6455078125,-71.8408203125,-72.2314453125,-73.1103515625,-73.8427734375,-74.9658203125,-75.5517578125,-75.4541015625,-76.7724609375,-77.1630859375,-77.6025390625,-78.6279296875,-78.7744140625,-79.2138671875,-79.5556640625,-78.4326171875,-76.3818359375,-75.2587890625,-72.4755859375,-70.8642578125,-70.0830078125,-69.1552734375,-69.3505859375,-69.5947265625,-69.3994140625,-69.9365234375,-69.5458984375,-69.6923828125,-70.7666015625,-70.8154296875,-71.5478515625,-72.2802734375,-72.7197265625,-73.7451171875,-74.1845703125,-74.8193359375,-75.6494140625,-76.0400390625,-76.1865234375,-76.9677734375,-77.2119140625,-77.9931640625,-78.6279296875,-78.7744140625,-77.8955078125,-76.2841796875,-74.5263671875,-73.2568359375,-70.9619140625,-70.8642578125,-69.3505859375,-69.9853515625,-70.3759765625,-69.8876953125,-70.0341796875,-70.9619140625,-70.6689453125,-71.0107421875,-72.4755859375,-72.7197265625,-73.4521484375,-73.6962890625,-74.7705078125,-75.9912109375,-76.1376953125,-76.3818359375,-77.8955078125,-77.4072265625,-78.1396484375,-78.5791015625,-79.7998046875,-80.6298828125,-80.4345703125,-79.6044921875,-79.1650390625,-77.3095703125,-75.2587890625,-73.6962890625,-73.0126953125,-72.2314453125,-72.4267578125,-72.8662109375,-72.7685546875,-73.5498046875,-73.0126953125,-73.3056640625,-73.8916015625,-74.6240234375,-74.5263671875,-75.8935546875,-76.7724609375,-77.7001953125,-77.2119140625,-77.8955078125,-78.6279296875,-78.7255859375,-79.1650390625,-79.8486328125,-80.2392578125,-80.7763671875,-81.2646484375,-81.1181640625,-81.0205078125,-79.0185546875,-77.6513671875,-74.9658203125,-74.0380859375,-72.6220703125,-72.1337890625,-71.9873046875,-71.9873046875,-71.5966796875,-71.4990234375,-71.6455078125,-71.5966796875,-71.9384765625,-72.8173828125,-73.1591796875,-74.1845703125,-74.4287109375,-74.8681640625,-75.9423828125,-76.1376953125,-76.2841796875,-76.6259765625,-76.8212890625,-77.9931640625,-78.1396484375,-78.5791015625,-79.4091796875,-79.1162109375,-78.8720703125,-77.0654296875,-74.8681640625,-73.4521484375,-71.6943359375,-69.8388671875,-70.5712890625,-69.7412109375,-69.6435546875,-69.5458984375,-69.3017578125,-69.7412109375,-70.0341796875,-70.4248046875,-71.7919921875,-71.9384765625,-72.2314453125,-72.3779296875,-73.7451171875,-74.4287109375,-74.5751953125,-74.9658203125,-75.6005859375,-76.1376953125,-76.3818359375,-76.6748046875,-78.0419921875,-78.3349609375,-77.7490234375,-76.7236328125,-75.9423828125,-73.5498046875,-71.9384765625,-69.8876953125,-68.9111328125,-68.6669921875,-68.4228515625,-68.5693359375,-68.3740234375,-68.8134765625,-69.0087890625,-69.2529296875,-69.8876953125,-70.4736328125,-71.2548828125,-71.7919921875,-72.4267578125,-72.6708984375,-73.1591796875,-73.5986328125,-74.3798828125,-74.5751953125,-75.8935546875,-76.4794921875,-76.3818359375,-77.3583984375,-77.7490234375,-77.1142578125,-76.9189453125,-74.5751953125,-73.3056640625,-71.8408203125,-71.0595703125,-69.6923828125,-68.9599609375,-69.7900390625,-68.8623046875,-68.9111328125,-69.2529296875,-69.8876953125,-70.2294921875,-70.8154296875,-71.0595703125,-71.7431640625,-72.5244140625,-72.3291015625,-73.5009765625,-73.9892578125,-74.8193359375,-75.0634765625,-75.6982421875,-76.4794921875,-77.3095703125,-77.6025390625,-77.7978515625,-77.0654296875,-76.6748046875,-75.9912109375,-74.2822265625,-72.1826171875,-70.1318359375,-69.4970703125,-68.9599609375,-69.1064453125,-68.7158203125,-68.6181640625,-68.6181640625,-68.3251953125,-68.5693359375,-69.1552734375,-69.3505859375,-70.0830078125,-70.9130859375,-70.9130859375,-71.7919921875,-71.4501953125,-72.1826171875,-72.3291015625,-72.8662109375,-73.7939453125,-74.0869140625,-74.9169921875,-75.3076171875,-75.3564453125,-75.2099609375,-73.9892578125,-72.2314453125,-70.0830078125,-67.8857421875,-66.5185546875,-66.2255859375,-65.9814453125,-65.7373046875,-65.4443359375,-65.0537109375,-65.8349609375,-66.1279296875,-66.3720703125,-66.6162109375,-66.8115234375,-67.0556640625,-67.7392578125,-69.0087890625,-69.3994140625,-69.7412109375,-70.2783203125,-70.7666015625,-71.4013671875,-71.6943359375,-72.4755859375,-72.9150390625,-73.2568359375,-73.0615234375,-72.1337890625,-70.3271484375,-68.4716796875,-66.9580078125,-65.3955078125,-64.3212890625,-63.3447265625,-63.8330078125,-63.3447265625,-62.6611328125,-63.1494140625,-63.3447265625,-63.7841796875,-64.1748046875,-64.6142578125,-65.2001953125,-65.5419921875,-66.9091796875,-67.7880859375,-67.9345703125,-68.6669921875,-69.1064453125,-69.7412109375,-70.9130859375,-71.7431640625,-71.8896484375,-72.7685546875,-72.8173828125,-72.5244140625,-71.0595703125,-68.3740234375,-67.4951171875,-65.7861328125,-64.0283203125,-64.0283203125,-63.8330078125,-63.7841796875,-63.3935546875,-64.4677734375,-64.5654296875,-64.4677734375,-65.0048828125,-65.9814453125,-66.2744140625,-67.5927734375,-68.3740234375,-69.1552734375,-69.3017578125,-69.8876953125,-70.7177734375,-71.1083984375,-71.8896484375,-72.2802734375,-72.9638671875,-73.5009765625,-73.9892578125,-73.5009765625,-72.1337890625,-70.3271484375,-69.1552734375,-67.2509765625,-65.7861328125,-65.2978515625,-64.9072265625,-65.2490234375,-65.2490234375,-65.6396484375,-65.3955078125,-65.4443359375,-65.5419921875,-65.7373046875,-65.9814453125,-67.0068359375,-67.3974609375,-68.4228515625,-68.1787109375,-68.8623046875,-69.5458984375,-69.8388671875,-70.7666015625,-71.1083984375,-71.7919921875,-72.8173828125,-73.0615234375,-72.3779296875,-71.2060546875,-69.1064453125,-67.2998046875,-65.4931640625,-63.9794921875,-63.1494140625,-63.1982421875,-62.8564453125,-62.1728515625,-63.0517578125,-62.7587890625,-62.7099609375,-63.9794921875,-63.8330078125,-64.3701171875,-65.3955078125,-65.9326171875,-67.1533203125,-67.8369140625,-68.2275390625,-69.1552734375,-69.0576171875,-69.8388671875,-70.8642578125,-71.4990234375,-72.2802734375,-72.8662109375,-72.7197265625,-72.3291015625,-70.6689453125,-69.1064453125,-66.9580078125,-65.5419921875,-64.0283203125,-62.9052734375,-63.0029296875,-63.5888671875,-63.1494140625,-63.1494140625,-63.6376953125,-64.2724609375,-63.7841796875,-65.2978515625,-65.9326171875,-66.6650390625,-67.3974609375,-68.1787109375,-69.3017578125,-69.4970703125,-69.2041015625,-70.5712890625,-71.4013671875,-72.2314453125,-73.4033203125,-74.0380859375,-74.7216796875,-74.5751953125,-73.7451171875,-72.4755859375,-70.8154296875,-69.2529296875,-67.9833984375,-66.4697265625,-65.9814453125,-66.3720703125,-66.2744140625,-66.6162109375,-67.0068359375,-67.1044921875,-67.2021484375,-67.4462890625,-68.2763671875,-69.2529296875,-70.3271484375,-70.9130859375,-71.9384765625,-72.2314453125,-72.6220703125,-73.5986328125,-73.7451171875,-74.8193359375,-74.8193359375,-76.2353515625,-76.8212890625,-76.4794921875,-76.7724609375,-75.4541015625,-73.5009765625,-72.3291015625,-70.6689453125,-69.2529296875,-68.2763671875,-68.2763671875,-67.8369140625,-68.2275390625,-68.1787109375,-68.1298828125,-68.5693359375,-68.9111328125,-68.7158203125,-69.5947265625,-70.0341796875,-70.5224609375,-71.4013671875,-71.7431640625,-72.3779296875,-72.1337890625,-73.0615234375,-73.2568359375,-73.3544921875,-74.5263671875,-74.5751953125,-75.9423828125,-76.0888671875,-75.0146484375,-73.0126953125,-71.7431640625,-69.3505859375,-67.6416015625,-67.1533203125,-65.9814453125,-65.8837890625,-65.7861328125,-65.7373046875,-65.4931640625,-65.9326171875,-66.2744140625,-66.5185546875,-66.7138671875,-67.9833984375,-68.0810546875,-68.7158203125,-69.3994140625,-69.8388671875,-70.7666015625,-71.2548828125,-71.3037109375,-71.6943359375,-72.1826171875,-72.9150390625,-73.6474609375,-74.1357421875,-73.3544921875,-73.0615234375,-71.4990234375,-68.9111328125,-66.9091796875,-65.4931640625,-64.7607421875,-64.4189453125,-64.7119140625,-63.9794921875,-63.9306640625,-64.5654296875,-64.4189453125,-65.0537109375,-65.2490234375,-66.1767578125,-65.9814453125,-67.2509765625,-67.7392578125,-68.5693359375,-69.0576171875,-69.0087890625,-70.2294921875,-70.4248046875,-71.3525390625,-72.2802734375,-72.8662109375,-73.4521484375,-74.1845703125,-73.8916015625,-72.8173828125,-71.4501953125,-69.9853515625,-68.2763671875,-66.6162109375,-65.2490234375,-65.0048828125,-64.6630859375,-64.4189453125,-65.1513671875,-65.3955078125,-65.5908203125,-65.3466796875,-66.8115234375,-67.2998046875,-67.8369140625,-68.8134765625,-69.5458984375,-69.9365234375,-70.6201171875,-71.5478515625,-72.0849609375,-72.4755859375,-73.2568359375,-73.7451171875,-74.4775390625,-74.8193359375,-75.4052734375,-75.1611328125,-74.2333984375,-73.0615234375,-70.9130859375,-69.7900390625,-68.5205078125,-67.6416015625,-68.4228515625,-69.0087890625,-67.8857421875,-68.1787109375,-68.8623046875,-68.8623046875,-69.0087890625,-69.3505859375,-69.9365234375,-71.2548828125,-71.4501953125,-71.9873046875,-72.3291015625,-72.6220703125,-73.2568359375,-73.6962890625,-73.8916015625,-74.6240234375,-74.5751953125,-75.0634765625,-76.5771484375,-75.6005859375,-74.4287109375,-73.0615234375,-71.3525390625,-69.4970703125,-68.1787109375,-66.9580078125,-66.8115234375,-66.9580078125,-66.5185546875,-67.0556640625,-66.3720703125,-66.2255859375,-66.3720703125,-67.4462890625,-67.7880859375,-68.5693359375,-68.6181640625,-69.2529296875,-69.1552734375,-70.0341796875,-70.3759765625,-70.8154296875,-71.7919921875,-71.9384765625,-72.0361328125,-72.7685546875,-72.9638671875,-73.2080078125,-73.0126953125,-71.5966796875,-69.2529296875,-68.0810546875,-66.2255859375,-64.9560546875,-63.8818359375,-63.9794921875,-63.6865234375,-63.7353515625,-63.9794921875,-63.9794921875,-64.0283203125,-64.4677734375,-64.7607421875,-65.2001953125,-65.6396484375,-66.4208984375,-67.4462890625,-67.9345703125,-68.2763671875,-68.3251953125,-69.3994140625,-69.8876953125,-70.3271484375,-70.8154296875,-71.7431640625,-71.4501953125,-72.0361328125,-72.0361328125,-69.6923828125,-68.4228515625,-66.5185546875,-64.4677734375,-63.5888671875,-62.9541015625,-63.2958984375,-62.9541015625,-63.8330078125,-63.9306640625,-63.8818359375,-64.6142578125,-64.6142578125,-64.8583984375,-66.3720703125,-66.8115234375,-66.9580078125,-67.9345703125,-69.1552734375,-69.0087890625,-69.7900390625,-70.2294921875,-70.8154296875,-71.8896484375,-72.2802734375,-72.8662109375,-72.9150390625,-72.9638671875,-72.0849609375,-70.7666015625,-69.4970703125,-67.5439453125,-66.2255859375,-65.6884765625,-65.3466796875,-65.3955078125,-64.6630859375,-65.2490234375,-65.2001953125,-65.3955078125,-65.7373046875,-66.2255859375,-66.2744140625,-67.4951171875,-67.4951171875,-68.2275390625,-68.8134765625,-68.8623046875,-69.4482421875,-69.7412109375,-70.2783203125,-70.9619140625,-70.9130859375,-71.5478515625,-72.4755859375,-71.7431640625,-71.5966796875,-69.8876953125,-68.0810546875,-66.4697265625,-64.5654296875,-63.2470703125,-62.6611328125,-62.2705078125,-62.2705078125,-62.3193359375,-62.5634765625,-63.0517578125,-63.1494140625,-63.4912109375,-63.6376953125,-64.1748046875,-64.9560546875,-65.9326171875,-66.3720703125,-67.0556640625,-66.8603515625,-67.7392578125,-68.2763671875,-69.1064453125,-69.2041015625,-70.3759765625,-70.4248046875,-70.7666015625,-70.7666015625,-70.0341796875,-68.1298828125,-66.4697265625,-65.2001953125,-63.6376953125,-62.0263671875,-61.5380859375,-62.0751953125,-61.8310546875,-61.8798828125,-61.8310546875,-62.4169921875,-62.4658203125,-62.9541015625,-63.1982421875,-64.4677734375,-65.0048828125,-65.7861328125,-66.4208984375,-66.9091796875,-67.6416015625,-69.1064453125,-69.1064453125,-70.1318359375,-70.9130859375,-71.1572265625,-71.8896484375,-72.0849609375,-71.9384765625,-70.7666015625,-69.4970703125,-67.7880859375,-66.1767578125,-65.3466796875,-63.9794921875,-63.4423828125,-64.0771484375,-64.1259765625,-64.0771484375,-64.3212890625,-64.4189453125,-64.6142578125,-64.9072265625,-65.9326171875,-66.4697265625,-66.3720703125,-67.8857421875,-68.6669921875,-68.7646484375,-68.9599609375,-69.5947265625,-69.9365234375,-70.4248046875,-70.9619140625,-71.7431640625,-71.7919921875,-71.8896484375,-72.0361328125,-70.0830078125,-67.8369140625,-66.0791015625,-65.0537109375,-63.5400390625,-62.9052734375,-63.1005859375,-62.7587890625,-62.3193359375,-62.2705078125,-62.4169921875,-62.1240234375,-62.1728515625,-63.1494140625,-63.2958984375,-64.0771484375,-64.4677734375,-65.3955078125,-66.3232421875,-65.7861328125,-66.8115234375,-66.9091796875,-67.4462890625,-68.1787109375,-69.1552734375,-69.6435546875,-69.5458984375,-70.1318359375,-68.2275390625,-66.6162109375,-64.7607421875,-62.7099609375,-62.1240234375,-60.5126953125,-59.5361328125,-59.9755859375,-60.0244140625,-60.1708984375,-59.5361328125,-59.8779296875,-60.2197265625,-60.6591796875,-61.4404296875,-61.7822265625,-62.7099609375,-63.1005859375,-63.9794921875,-64.8583984375,-64.9560546875,-65.6396484375,-65.9814453125,-66.8603515625,-67.0556640625,-67.8369140625,-68.5693359375,-68.8623046875,-68.7646484375,-66.9580078125,-65.5419921875,-63.1005859375,-62.4658203125,-61.5380859375,-60.2685546875,-60.1220703125,-60.9521484375,-60.9521484375,-60.5126953125,-60.9033203125,-61.5869140625,-62.1240234375,-62.7587890625,-62.8564453125,-64.3701171875,-64.2236328125,-65.0048828125,-66.1279296875,-67.0068359375,-67.0556640625,-68.3251953125,-68.3251953125,-69.2529296875,-69.9853515625,-70.3271484375,-70.9130859375,-71.1083984375,-70.4248046875,-68.2763671875,-67.5439453125,-66.0791015625,-64.7119140625,-64.1748046875,-63.2958984375,-63.7353515625,-64.0771484375,-63.9794921875,-63.9794921875,-64.4677734375,-63.8818359375,-65.1513671875,-65.4931640625,-65.5419921875,-65.8349609375,-67.1044921875,-67.4951171875,-67.5927734375,-68.0810546875,-68.7158203125,-69.1552734375,-69.6923828125,-70.2294921875,-70.7177734375,-70.8154296875,-71.5966796875,-71.0595703125,-69.5947265625,-67.2509765625,-66.2744140625,-64.8583984375,-63.7841796875,-62.5634765625,-62.7099609375,-62.7587890625,-62.0263671875,-62.4169921875,-62.2705078125,-62.3193359375,-63.1982421875,-63.3935546875,-63.6376953125,-63.6376953125,-64.6630859375,-64.9560546875,-65.7373046875,-66.3720703125,-67.2021484375,-67.5439453125,-67.8369140625,-68.8623046875,-69.1064453125,-69.2529296875,-69.5947265625,-69.9853515625,-69.3017578125,-67.8369140625,-66.6162109375,-64.2724609375,-62.9052734375,-61.7822265625,-61.0498046875,-61.0986328125,-61.4404296875,-60.6591796875,-61.1474609375,-61.0009765625,-61.6845703125,-62.0751953125,-62.4658203125,-63.0517578125,-63.8818359375,-64.4189453125,-64.8583984375,-65.5419921875,-66.3232421875,-66.7138671875,-67.1533203125,-68.3740234375,-68.6181640625,-69.1552734375,-70.1318359375,-70.1318359375,-69.9365234375,-69.3017578125,-67.8857421875,-66.4697265625,-64.8095703125,-63.7841796875,-63.3935546875,-62.5146484375,-62.4658203125,-63.0517578125,-62.8076171875,-63.1982421875,-63.3935546875,-63.9306640625,-63.9794921875,-64.8583984375,-65.2490234375,-66.9580078125,-66.7138671875,-67.5439453125,-68.4716796875,-68.6669921875,-69.1064453125,-69.4970703125,-70.6201171875,-71.2548828125,-71.4990234375,-71.8896484375,-72.2314453125,-71.3037109375,-70.1318359375,-68.5205078125,-66.6162109375,-65.9814453125,-64.3701171875,-64.5654296875,-64.4677734375,-64.7119140625,-64.0771484375,-64.1748046875,-64.6142578125,-64.5654296875,-64.8095703125,-65.7373046875,-66.1767578125,-66.2255859375,-66.4208984375,-67.2021484375,-67.0556640625,-67.7392578125,-68.2763671875,-68.4228515625,-68.8623046875,-68.9599609375,-69.8388671875,-70.4736328125,-70.2783203125,-70.5712890625,-69.4482421875,-67.8369140625,-65.9814453125,-64.5166015625,-63.2958984375,-62.1728515625,-61.5869140625,-60.9033203125,-61.0009765625,-61.0498046875,-60.8544921875,-61.9775390625,-61.8310546875,-62.2216796875,-62.4658203125,-63.1005859375,-63.4912109375,-64.6142578125,-65.0537109375,-65.2001953125,-66.0791015625,-66.5673828125,-66.7626953125,-67.8857421875,-68.2275390625,-68.9599609375,-69.1552734375,-69.4482421875,-68.8134765625,-68.7646484375,-66.3720703125,-64.6142578125,-63.1005859375,-61.4404296875,-60.5615234375,-60.4638671875,-60.5126953125,-60.4638671875,-60.4638671875,-60.3662109375,-60.9521484375,-61.0498046875,-60.9033203125,-62.3193359375,-62.6611328125,-63.3935546875,-64.2724609375,-64.6630859375,-64.6630859375,-65.1025390625,-65.8349609375,-66.0791015625,-66.3232421875,-66.9091796875,-67.5927734375,-68.7646484375,-68.9111328125,-68.6669921875,-68.6669921875,-66.6650390625,-65.0537109375,-63.9794921875,-62.1728515625,-60.4638671875,-60.8056640625,-60.6103515625,-60.6591796875,-60.0732421875,-60.4638671875,-60.9033203125,-61.1474609375,-61.3916015625,-61.6845703125,-62.5634765625,-63.1982421875,-64.0771484375,-65.0048828125,-65.5419921875,-65.7373046875,-66.5185546875,-66.6650390625,-67.3974609375,-67.8857421875,-69.1552734375,-69.6435546875,-70.0341796875,-70.2294921875,-69.9853515625,-68.8134765625,-67.0556640625,-65.6396484375,-64.5166015625,-63.0029296875,-62.5634765625,-62.6123046875,-62.8564453125,-62.2705078125,-62.6123046875,-62.8076171875,-63.1494140625,-63.2470703125,-63.9794921875,-64.8583984375,-65.1513671875,-65.8349609375,-66.5185546875,-67.1044921875,-67.2998046875,-67.8369140625,-67.7392578125,-68.1298828125,-68.8134765625,-69.2529296875,-69.5458984375,-70.7177734375,-70.9619140625,-69.8876953125,-68.8623046875,-66.5673828125,-65.7861328125,-63.5888671875,-61.9287109375,-61.7333984375,-62.2216796875,-61.7333984375,-61.3427734375,-61.0498046875,-61.3916015625,-61.5380859375,-61.4892578125,-62.1728515625,-62.4169921875,-62.6611328125,-63.8330078125,-64.0283203125,-64.6142578125,-65.3466796875,-65.5908203125,-66.2255859375,-67.5439453125,-67.8857421875,-68.3740234375,-68.2275390625,-69.1064453125,-69.1552734375,-69.1552734375,-67.7880859375,-65.6396484375,-63.8818359375,-62.6611328125,-61.0498046875,-60.0244140625,-59.8779296875,-59.5849609375,-59.9267578125,-60.0732421875,-59.8779296875,-59.9267578125,-60.1220703125,-60.4638671875,-61.0498046875,-61.7333984375,-62.1728515625,-63.1005859375,-63.3447265625,-64.0771484375,-64.1259765625,-64.4677734375,-65.6884765625,-66.0302734375,-66.4208984375,-67.4462890625,-67.9345703125,-68.3251953125,-67.6904296875,-66.2744140625,-65.2490234375,-63.3935546875,-61.7333984375,-60.7080078125,-59.3896484375,-59.2431640625,-59.0966796875,-59.9267578125,-59.2431640625,-59.2431640625,-59.4384765625,-59.7802734375,-60.3173828125,-60.9521484375,-61.1474609375,-62.8564453125,-62.7099609375,-63.9306640625,-64.3701171875,-65.1025390625,-65.3466796875,-65.9814453125,-66.5185546875,-67.0556640625,-67.6416015625,-68.4228515625,-68.8623046875,-68.3251953125,-67.5439453125,-66.2744140625,-64.5166015625,-63.3447265625,-61.5869140625,-61.3427734375,-60.8544921875,-60.9521484375,-61.0986328125,-60.6591796875,-61.2939453125,-61.4404296875,-61.0498046875,-61.6845703125,-62.1240234375,-62.6123046875,-63.1982421875,-63.8330078125,-64.0283203125,-64.8583984375,-64.6630859375,-65.4931640625,-65.2978515625,-65.7373046875,-66.4208984375,-67.0556640625,-67.0068359375,-67.6416015625,-66.8603515625,-65.6884765625,-64.0283203125,-62.4658203125,-60.0244140625,-59.3896484375,-58.5107421875,-57.8271484375,-57.9736328125,-57.8759765625,-58.1689453125,-58.2666015625,-58.4619140625,-58.5107421875,-58.9013671875,-59.3408203125,-59.3896484375,-60.3173828125,-61.1474609375,-61.8310546875,-62.5146484375,-63.2470703125,-63.3935546875,-64.2724609375,-64.2236328125,-64.8583984375,-65.4931640625,-66.0791015625,-65.4931640625,-65.0048828125,-63.3935546875,-62.3681640625,-60.7568359375,-58.6083984375,-57.5830078125,-56.9482421875,-56.3134765625,-56.7041015625,-56.1669921875,-56.7041015625,-56.4599609375,-57.3388671875,-57.2412109375,-57.3876953125,-58.1201171875,-58.8037109375,-59.5361328125,-60.0732421875,-60.8544921875,-61.4892578125,-61.8798828125,-62.7099609375,-63.0517578125,-63.4423828125,-63.9306640625,-65.2001953125,-65.3955078125,-65.4443359375,-65.0048828125,-63.3935546875,-62.0263671875,-60.0244140625,-58.8037109375,-57.5341796875,-57.3388671875,-57.5341796875,-57.3876953125,-57.7294921875,-57.6318359375,-57.7783203125,-58.4130859375,-59.2919921875,-59.9267578125,-60.4638671875,-61.4404296875,-62.1240234375,-62.6611328125,-63.5400390625,-63.6865234375,-64.3701171875,-65.3466796875,-65.3955078125,-66.2255859375,-67.0068359375,-67.0068359375,-67.4951171875,-66.5673828125,-65.9326171875,-64.3701171875,-62.7099609375,-61.9775390625,-60.7080078125,-59.9755859375,-59.7802734375,-59.8779296875,-59.2431640625,-59.8291015625,-59.5849609375,-60.0244140625,-60.3173828125,-61.0009765625,-61.6845703125,-62.1240234375,-62.1240234375,-62.4169921875,-63.0029296875,-62.9052734375,-63.4912109375,-63.8818359375,-64.7607421875,-65.3955078125,-66.1279296875,-65.7373046875,-66.5185546875,-66.2255859375,-64.9072265625,-63.3935546875,-62.2216796875,-60.0732421875,-58.2666015625,-57.5830078125,-57.0947265625,-56.4111328125,-56.8994140625,-56.4111328125,-56.6552734375,-56.8994140625,-57.1923828125,-57.0458984375,-57.7294921875,-58.6572265625,-58.7060546875,-59.3408203125,-59.8291015625,-60.6591796875,-60.7568359375,-61.6845703125,-62.4169921875,-62.3681640625,-63.0517578125,-63.6376953125,-64.1748046875,-63.8818359375,-63.1982421875,-62.1240234375,-60.0244140625,-58.5107421875,-56.6064453125,-55.7275390625,-55.5810546875,-54.5068359375,-54.9462890625,-54.7509765625,-55.3857421875,-55.0439453125,-55.3857421875,-55.7275390625,-56.3623046875,-56.7041015625,-57.6806640625,-58.3154296875,-59.7314453125,-59.3408203125,-60.3662109375,-61.1962890625,-61.5380859375,-62.5146484375,-63.1494140625,-63.9794921875,-63.7841796875,-64.7607421875,-64.2236328125,-63.4912109375,-61.1474609375,-59.6826171875,-58.5107421875,-57.2900390625,-56.8505859375,-55.9716796875,-56.7529296875,-56.8017578125,-57.0458984375,-57.3388671875,-57.7783203125,-59.0478515625,-59.6337890625,-59.7802734375,-60.9521484375,-60.9033203125,-61.9775390625,-62.2705078125,-63.1982421875,-63.1005859375,-63.7353515625,-64.7119140625,-65.0048828125,-65.2490234375,-66.2255859375,-65.6884765625,-65.4931640625,-64.2724609375,-62.8076171875,-61.1962890625,-59.6826171875,-57.9736328125,-57.4853515625,-57.8759765625,-56.8994140625,-57.5830078125,-57.6318359375,-57.2900390625,-57.3388671875,-58.5107421875,-58.7548828125,-59.4384765625,-59.8291015625,-60.7080078125,-60.8056640625,-61.6357421875,-61.4404296875,-62.8564453125,-62.6611328125,-63.7841796875,-64.0283203125,-65.2490234375,-65.1513671875,-65.1025390625,-64.6142578125,-62.8564453125,-61.3427734375,-59.4873046875,-57.6318359375,-56.3134765625,-55.8740234375,-55.4345703125,-55.2880859375,-55.0439453125,-55.6787109375,-55.8740234375,-56.4111328125,-57.2412109375,-57.2412109375,-58.0224609375,-58.1689453125,-58.8525390625,-59.7314453125,-60.4150390625,-61.0986328125,-61.8310546875,-61.7822265625,-62.4169921875,-63.0517578125,-63.8330078125,-64.1748046875,-63.8818359375,-63.8818359375,-62.3193359375,-60.9521484375,-59.1455078125,-57.6806640625,-56.4111328125,-56.0205078125,-56.0693359375,-55.8740234375,-55.5810546875,-56.0205078125,-56.2646484375,-56.6552734375,-57.0947265625,-57.0458984375,-58.4130859375,-58.7548828125,-59.5849609375,-60.9033203125,-60.7568359375,-61.4404296875,-62.9052734375,-62.8564453125,-63.5400390625,-64.6142578125,-64.8095703125,-65.4443359375,-65.7373046875,-65.1513671875,-64.4189453125,-63.0517578125,-61.1962890625,-59.8779296875,-59.1455078125,-58.0712890625,-57.9248046875,-58.0712890625,-58.7060546875,-58.4619140625,-58.2177734375,-58.5595703125,-58.9013671875,-59.8291015625,-60.6591796875,-60.7568359375,-61.0498046875,-62.0751953125,-62.4658203125,-62.6611328125,-63.3935546875,-63.4423828125,-64.4189453125,-64.5166015625,-64.6142578125,-65.3955078125,-65.2978515625,-64.9560546875,-63.2958984375,-61.2451171875,-59.9755859375,-58.2177734375,-56.7529296875,-56.8505859375,-56.4599609375,-56.2158203125,-56.1181640625,-56.4111328125,-56.8017578125,-56.7529296875,-57.5341796875,-58.5595703125,-58.6083984375,-58.7548828125,-60.0244140625,-60.9521484375,-60.8544921875,-61.7333984375,-61.8310546875,-63.0029296875,-63.4912109375,-63.8818359375,-64.1259765625,-64.7119140625,-64.9560546875,-64.3212890625,-64.0771484375,-61.9287109375,-60.6103515625,-58.6572265625,-57.3388671875,-56.7041015625,-55.8740234375,-55.9228515625,-55.9228515625,-56.2158203125,-55.9228515625,-56.4599609375,-55.9716796875,-57.0458984375,-57.1435546875,-58.2177734375,-58.6083984375,-59.2919921875,-59.8291015625,-60.9521484375,-61.8310546875,-62.5634765625,-62.9052734375,-63.1494140625,-63.7841796875,-64.5166015625,-64.6630859375,-65.1513671875,-64.1259765625,-62.2216796875,-61.0986328125,-59.4873046875,-58.2177734375,-57.3388671875,-57.4365234375,-57.4853515625,-56.7529296875,-57.2900390625,-57.6318359375,-57.5830078125,-57.8271484375,-58.4619140625,-59.2431640625,-59.3408203125,-60.2197265625,-60.9521484375,-61.1962890625,-61.9287109375,-62.5146484375,-62.7587890625,-64.0283203125,-64.7607421875,-65.1513671875,-65.3955078125,-66.5673828125,-66.7138671875,-65.9326171875,-65.0537109375,-63.1494140625,-62.0751953125,-60.7568359375,-59.2431640625,-58.3154296875,-58.4130859375,-57.9248046875,-58.2177734375,-58.2666015625,-58.5595703125,-58.8525390625,-58.6083984375,-59.2919921875,-59.4873046875,-59.9267578125,-60.2685546875,-60.6591796875,-60.9033203125,-61.9287109375,-62.5146484375,-63.3447265625,-63.4912109375,-63.3935546875,-64.2236328125,-64.2724609375,-64.1748046875,-64.4677734375,-63.1982421875,-61.8798828125,-59.9755859375,-58.2666015625,-57.3876953125,-56.2158203125,-55.8740234375,-55.9716796875,-55.3857421875,-55.6298828125,-56.0693359375,-55.7763671875,-55.8740234375,-56.2158203125,-57.0458984375,-57.6806640625,-58.1689453125,-59.0478515625,-59.2431640625,-60.1708984375,-60.4638671875,-61.0498046875,-61.3916015625,-62.2705078125,-62.5634765625,-62.0263671875,-63.5400390625,-63.4423828125,-62.7099609375,-61.0498046875,-59.1455078125,-58.0712890625,-56.5576171875,-54.8974609375,-54.0185546875,-54.2626953125,-54.2626953125,-54.1650390625,-54.7021484375,-54.6044921875,-54.4580078125,-55.3369140625,-55.1416015625,-56.1669921875,-56.5576171875,-57.1435546875,-58.0224609375,-58.4619140625,-58.9013671875,-59.3408203125,-59.7802734375,-60.9521484375,-61.4892578125,-61.6845703125,-62.2705078125,-61.9775390625,-61.9775390625,-60.9033203125,-59.4873046875,-57.3388671875,-56.8017578125,-54.9951171875,-54.5556640625,-54.7021484375,-54.4580078125,-54.4580078125,-54.1162109375,-55.2880859375,-55.1904296875,-55.1416015625,-56.3134765625,-56.5576171875,-57.5341796875,-57.4365234375,-57.9248046875,-58.8525390625,-59.5361328125,-59.8291015625,-60.8544921875,-61.2939453125,-62.0751953125,-62.4658203125,-62.5146484375,-63.0029296875,-63.1005859375,-62.6611328125,-60.8056640625,-59.3408203125,-58.2177734375,-57.5341796875,-56.6064453125,-55.6298828125,-56.0693359375,-55.6787109375,-56.3134765625,-56.4599609375,-55.8251953125,-56.1181640625,-56.9970703125,-57.6806640625,-57.9248046875,-58.9013671875,-58.9501953125,-59.4384765625,-59.8291015625,-60.6103515625,-60.7080078125,-60.7080078125,-61.9287109375,-62.2705078125,-62.6123046875,-62.7099609375,-62.5634765625,-61.9287109375,-60.0244140625,-58.5595703125,-56.3623046875,-54.8974609375,-53.6279296875,-53.6279296875,-53.0908203125,-53.3349609375,-52.9931640625,-53.3837890625,-53.6279296875,-53.6279296875,-54.2138671875,-54.7998046875,-54.6533203125,-55.2392578125,-56.1669921875,-56.7041015625,-57.3388671875,-58.4619140625,-57.7783203125,-58.1201171875,-58.8037109375,-59.3408203125,-60.1220703125,-60.4638671875,-60.6103515625,-60.3662109375,-58.8525390625,-57.4365234375,-55.2392578125,-53.6767578125,-52.3583984375,-51.2841796875,-51.4306640625,-50.5517578125,-50.7470703125,-51.1376953125,-50.9912109375,-51.1865234375,-51.4794921875,-51.7724609375,-52.5537109375,-53.1884765625,-53.6279296875,-54.4580078125,-54.7998046875,-55.0927734375,-56.3134765625,-56.6552734375,-57.2412109375,-58.0712890625,-58.5595703125,-58.8525390625,-58.9013671875,-58.8525390625,-58.4130859375,-56.3134765625,-54.7021484375,-53.6279296875,-51.7724609375,-50.5029296875,-50.1123046875,-50.6494140625,-50.4052734375,-50.5029296875,-50.7470703125,-50.7958984375,-51.5283203125,-51.6259765625,-52.4072265625,-52.9931640625,-53.4814453125,-54.8974609375,-54.9462890625,-55.3857421875,-56.0693359375,-57.2412109375,-57.3876953125,-58.0224609375,-58.9501953125,-59.4384765625,-59.9267578125,-59.9267578125,-60.2685546875,-58.1689453125,-56.3623046875,-55.3857421875,-53.8720703125,-53.2373046875,-53.0908203125,-52.8466796875,-52.8955078125,-52.8466796875,-53.1396484375,-53.8232421875,-53.5791015625,-54.1162109375,-54.5556640625,-55.0439453125,-55.6298828125,-56.5087890625,-56.8505859375,-57.9248046875,-58.2666015625,-58.6083984375,-58.9013671875,-59.0966796875,-59.6337890625,-60.2197265625,-60.5615234375,-60.4638671875,-60.0244140625,-58.4619140625,-56.2646484375,-55.2392578125,-53.1884765625,-52.2119140625,-51.7724609375,-51.6748046875,-51.5771484375,-51.2841796875,-50.8935546875,-51.0888671875,-51.6259765625,-51.5771484375,-51.8212890625,-52.1630859375,-52.8466796875,-53.6279296875,-54.3603515625,-54.3115234375,-55.1416015625,-55.9228515625,-56.0693359375,-56.9970703125,-57.3876953125,-57.5341796875,-59.1455078125,-58.5107421875,-57.5341796875,-55.9716796875,-53.7255859375,-52.7001953125,-50.6982421875,-49.1357421875,-49.0869140625,-48.3056640625,-48.9404296875,-48.9404296875,-48.6474609375,-49.0869140625,-49.0380859375,-49.5751953125,-49.9169921875,-49.9658203125,-51.0400390625,-51.2841796875,-52.1142578125,-53.1396484375,-53.6279296875,-53.9697265625,-54.4580078125,-55.1904296875,-55.8251953125,-56.8017578125,-57.5830078125,-57.0458984375,-56.3623046875,-55.3369140625,-53.1396484375,-51.7724609375,-49.9169921875,-48.7451171875,-48.2080078125,-47.8662109375,-48.1591796875,-48.4033203125,-48.5498046875,-48.9404296875,-48.2080078125,-48.7451171875,-50.5029296875,-50.6982421875,-51.6259765625,-52.3095703125,-53.1396484375,-53.7255859375,-53.8232421875,-54.7998046875,-55.5810546875,-56.6552734375,-57.1435546875,-57.8759765625,-57.9736328125,-58.4130859375,-57.6318359375,-57.2412109375,-55.7275390625,-54.1650390625,-52.6513671875,-52.1142578125,-51.3818359375,-50.9912109375,-51.7724609375,-51.3818359375,-51.3330078125,-51.9189453125,-52.3095703125,-52.9443359375,-53.0908203125,-52.9443359375,-54.3603515625,-54.3115234375,-54.9462890625,-55.6787109375,-56.2646484375,-56.8505859375,-57.5341796875,-57.5830078125,-58.6572265625,-58.4619140625,-58.7548828125,-58.7060546875,-58.7060546875,-56.9482421875,-55.5322265625,-53.6767578125,-51.7724609375,-51.1376953125,-50.3076171875,-49.8681640625,-50.0146484375,-49.7705078125,-49.8193359375,-49.5751953125,-49.6240234375,-50.2587890625,-50.8447265625,-50.8935546875,-51.6259765625,-52.0654296875,-52.9443359375,-53.2861328125,-53.7744140625,-55.1904296875,-55.0927734375,-55.4833984375,-55.4345703125,-56.6552734375,-56.7041015625,-56.9482421875,-56.6552734375,-55.8740234375,-54.2138671875,-52.7490234375,-50.2587890625,-48.8916015625,-48.5498046875,-48.0615234375,-48.0615234375,-48.2080078125,-47.9150390625,-48.1591796875,-47.9638671875,-49.0380859375,-49.7216796875,-49.7216796875,-50.2099609375,-50.7958984375,-51.3818359375,-51.6748046875,-52.8466796875,-53.2373046875,-53.0908203125,-54.3603515625,-55.2880859375,-55.0927734375,-55.8251953125,-56.3623046875,-55.9716796875,-54.5068359375,-52.8955078125,-51.7236328125,-49.3310546875,-48.5986328125,-47.9150390625,-47.4755859375,-47.8662109375,-47.7685546875,-47.6220703125,-48.1103515625,-48.7451171875,-48.7939453125,-49.4775390625,-50.2099609375,-50.7958984375,-51.8212890625,-51.6748046875,-52.8955078125,-52.8466796875,-53.6767578125,-54.2138671875,-55.1904296875,-55.7763671875,-56.8017578125,-57.0947265625,-56.6064453125,-56.6064453125,-55.1416015625,-53.6767578125,-51.9189453125,-51.5283203125,-50.0634765625,-49.8681640625,-49.9169921875,-49.9169921875,-50.5517578125,-50.0634765625,-50.5029296875,-51.0888671875,-51.4306640625,-51.9189453125,-52.6513671875,-52.7490234375,-53.8232421875,-53.9208984375,-54.2626953125,-54.1650390625,-55.8740234375,-56.2158203125,-56.6552734375,-56.9970703125,-57.2900390625,-57.3876953125,-57.6318359375,-56.5576171875,-54.3603515625,-52.3583984375,-50.6982421875,-49.2822265625,-48.6962890625,-48.0615234375,-47.6708984375,-48.3056640625,-48.0615234375,-48.2568359375,-48.1591796875,-48.7939453125,-49.2333984375,-49.5263671875,-49.8681640625,-50.9912109375,-51.0888671875,-52.1142578125,-52.3095703125,-52.5537109375,-52.9443359375,-53.2861328125,-53.8720703125,-54.4091796875,-54.2626953125,-54.8486328125,-54.2138671875,-52.3095703125,-51.1865234375,-49.1357421875,-47.1826171875,-45.9130859375,-46.0595703125,-45.6689453125,-45.7177734375,-45.4736328125,-45.2294921875,-45.5712890625,-46.1083984375,-46.9384765625,-47.0361328125,-48.0615234375,-47.9150390625,-48.3056640625,-49.2822265625,-49.7216796875,-50.3564453125,-50.7958984375,-50.9912109375,-51.9189453125,-52.1142578125,-53.5302734375,-53.5302734375,-52.6513671875,-52.7490234375,-50.8447265625,-49.2333984375,-46.8896484375,-45.8154296875,-44.7900390625,-44.7900390625,-44.4970703125,-44.6923828125,-44.3994140625,-44.4970703125,-45.0341796875,-45.6201171875,-45.8642578125,-47.5244140625,-47.6708984375,-48.5986328125,-48.5986328125,-49.2333984375,-49.9658203125,-50.4052734375,-51.6259765625,-51.8212890625,-52.2607421875,-53.1884765625,-54.1650390625,-53.9208984375,-53.6279296875,-52.3095703125,-51.1376953125,-49.0380859375,-47.5732421875,-46.6455078125,-46.5966796875,-46.7431640625,-46.3037109375,-46.6455078125,-46.6455078125,-46.4990234375,-47.6708984375,-48.5498046875,-48.3056640625,-49.0869140625,-49.9169921875,-50.2587890625,-51.1376953125,-51.3330078125,-51.7236328125,-52.2119140625,-52.7490234375,-53.2861328125,-53.9697265625,-54.5556640625,-54.3115234375,-54.1650390625,-53.1884765625,-51.4306640625,-49.5263671875,-47.6708984375,-46.3037109375,-45.5712890625,-45.2294921875,-45.3271484375,-45.3759765625,-44.6435546875,-45.2783203125,-44.8876953125,-45.7177734375,-46.6943359375,-46.6455078125,-47.5732421875,-47.5244140625,-48.4521484375,-48.9892578125,-49.3310546875,-50.1123046875,-50.3564453125,-51.3330078125,-51.4306640625,-52.5048828125,-52.7978515625,-51.6259765625,-51.2841796875,-49.6728515625,-47.7685546875,-45.9619140625,-44.8876953125,-43.4228515625,-43.3740234375,-43.0322265625,-42.4462890625,-42.5927734375,-42.8369140625,-42.6904296875,-43.6669921875,-44.3017578125,-44.5458984375,-45.2783203125,-45.7177734375,-46.4501953125,-47.4755859375,-48.1591796875,-48.3544921875,-48.4521484375,-49.8193359375,-50.1611328125,-50.7470703125,-51.4794921875,-51.0888671875,-51.1865234375,-50.5029296875,-48.3544921875,-46.9873046875,-45.2783203125,-43.5693359375,-43.5693359375,-43.8134765625,-43.1787109375,-43.1298828125,-43.4228515625,-43.3740234375,-44.6435546875,-44.7412109375,-45.5224609375,-46.4013671875,-47.2802734375,-48.0126953125,-48.7939453125,-48.7939453125,-49.8681640625,-50.4541015625,-51.3818359375,-52.4560546875,-53.2861328125,-53.5791015625,-53.7744140625,-54.1162109375,-53.2861328125,-51.5771484375,-50.0146484375,-49.1845703125,-47.8173828125,-46.5478515625,-47.1826171875,-46.8896484375,-47.1337890625,-46.7919921875,-47.2802734375,-47.7197265625,-47.8173828125,-48.5009765625,-49.0380859375,-49.9169921875,-50.1123046875,-50.7470703125,-50.9912109375,-51.6259765625,-51.8212890625,-51.4794921875,-52.9931640625,-53.3837890625,-53.0419921875,-54.1650390625,-53.6767578125,-53.8232421875,-52.4560546875,-50.3564453125,-48.5009765625,-47.0361328125,-45.4736328125,-45.4248046875,-45.4736328125,-45.5224609375,-44.6923828125,-44.8876953125,-45.0830078125,-45.3271484375,-45.7177734375,-46.3037109375,-46.5478515625,-47.1826171875,-47.7685546875,-48.5498046875,-48.9892578125,-49.5751953125,-50.2099609375,-50.9423828125,-51.1376953125,-52.3095703125,-52.6513671875,-53.3349609375,-52.7490234375,-52.0654296875,-50.4541015625,-48.5009765625,-47.0361328125,-45.2294921875,-44.5947265625,-43.8134765625,-43.7646484375,-44.1552734375,-43.4716796875,-44.0087890625,-44.0087890625,-44.2529296875,-44.6435546875,-45.3271484375,-46.1572265625,-46.4990234375,-47.3291015625,-47.9150390625,-48.3544921875,-49.0380859375,-49.5751953125,-50.2099609375,-50.6005859375,-51.7724609375,-52.4072265625,-52.5537109375,-52.4560546875,-52.2119140625,-49.9169921875,-48.4033203125,-46.6455078125,-45.6201171875,-44.4970703125,-44.1064453125,-43.5205078125,-43.5693359375,-44.3017578125,-44.5947265625,-44.6923828125,-44.6435546875,-45.6689453125,-45.9619140625,-47.0361328125,-47.3291015625,-48.3056640625,-49.0869140625,-49.6728515625,-50.1611328125,-51.5283203125,-51.5771484375,-52.5048828125,-53.2373046875,-54.0673828125,-54.3115234375,-54.3603515625,-54.1162109375,-52.2607421875,-49.8681640625,-48.9404296875,-48.3056640625,-47.4755859375,-46.4501953125,-46.7431640625,-46.8408203125,-46.7919921875,-46.9384765625,-47.1826171875,-48.0126953125,-48.3056640625,-48.8916015625,-49.4775390625,-50.6005859375,-51.0888671875,-51.3818359375,-51.8212890625,-52.6513671875,-52.1630859375,-53.1884765625,-53.7744140625,-54.1650390625,-54.8486328125,-54.6533203125,-54.2626953125,-52.6513671875,-51.6259765625,-50.3076171875,-48.7939453125,-46.8896484375,-45.5224609375,-45.7666015625,-45.0830078125,-45.0830078125,-45.2783203125,-45.2294921875,-44.9853515625,-45.5224609375,-45.9130859375,-46.3525390625,-46.4990234375,-47.1826171875,-47.6220703125,-47.8662109375,-48.5009765625,-49.0380859375,-49.0380859375,-49.6728515625,-50.6005859375,-51.0400390625,-51.6259765625,-51.3330078125,-51.3818359375,-49.9169921875,-47.9150390625,-46.2060546875,-44.5458984375,-42.7880859375,-42.0068359375,-41.9091796875,-41.8115234375,-41.2744140625,-41.3720703125,-41.6162109375,-41.2255859375,-41.9091796875,-42.3486328125,-42.6416015625,-43.2763671875,-44.1064453125,-44.8388671875,-45.7666015625,-45.5712890625,-46.1083984375,-46.5966796875,-47.7685546875,-48.5498046875,-48.7451171875,-49.0380859375,-49.5751953125,-49.1845703125,-47.9150390625,-46.5478515625,-44.5947265625,-42.9833984375,-41.3232421875,-41.0791015625,-40.5419921875,-40.7373046875,-40.5419921875,-40.5908203125,-40.9814453125,-41.3720703125,-41.9091796875,-42.2021484375,-42.4951171875,-43.9599609375,-44.5947265625,-45.0830078125,-45.1318359375,-45.9619140625,-46.4013671875,-47.1826171875,-48.4521484375,-48.8916015625,-49.3798828125,-49.7705078125,-50.5029296875,-49.1845703125,-48.6474609375,-46.9873046875,-45.2783203125,-43.6669921875,-42.5927734375,-42.2998046875,-41.8603515625,-41.3720703125,-41.9091796875,-41.3232421875,-42.0068359375,-42.1044921875,-41.8603515625,-42.6904296875,-43.1298828125,-44.0087890625,-44.2041015625,-44.5947265625,-44.4482421875,-45.1806640625,-46.0595703125,-46.3525390625,-47.0849609375,-47.1337890625,-47.0361328125,-47.4755859375,-47.3291015625,-46.4990234375,-44.5947265625,-42.9345703125,-41.1279296875,-40.0537109375,-38.8818359375,-38.7841796875,-38.7353515625,-38.4423828125,-38.0517578125,-38.2470703125,-38.7841796875,-39.1748046875,-39.8095703125,-39.9560546875,-40.8349609375,-41.0791015625,-42.0068359375,-42.3486328125,-42.6904296875,-43.2763671875,-43.4716796875,-44.2529296875,-45.3271484375,-45.1318359375,-46.3525390625,-46.5478515625,-46.3525390625,-45.2294921875,-43.2763671875,-41.3232421875,-40.0537109375,-38.7841796875,-37.5146484375,-38.6376953125,-37.0751953125,-37.1728515625,-36.7822265625,-37.0751953125,-38.3447265625,-38.0517578125,-38.8330078125,-39.3701171875,-40.2490234375,-41.5673828125,-41.9091796875,-42.9345703125,-43.7646484375,-44.2041015625,-45.2783203125,-45.2783203125,-46.1572265625,-46.8408203125,-47.8173828125,-48.3544921875,-48.2080078125,-46.8896484375,-45.1806640625,-43.2275390625,-42.0556640625,-41.2744140625,-40.9814453125,-41.0302734375,-40.6396484375,-41.0791015625,-40.7373046875,-41.3720703125,-41.5673828125,-41.9091796875,-42.7392578125,-43.4716796875,-44.1064453125,-44.8876953125,-45.3271484375,-46.1083984375,-46.2060546875,-46.1572265625,-47.0849609375,-47.4267578125,-48.0126953125,-49.0380859375,-48.8916015625,-48.8427734375,-48.3056640625,-46.6943359375,-44.5458984375,-43.0322265625,-41.7626953125,-40.4931640625,-40.6884765625,-40.0537109375,-40.2001953125,-40.2490234375,-40.3466796875,-40.0537109375,-40.5908203125,-41.1767578125,-41.8115234375,-42.1044921875,-43.0810546875,-43.2763671875,-44.2041015625,-44.5458984375,-44.5947265625,-45.6201171875,-45.7177734375,-46.8408203125,-47.2802734375,-47.7685546875,-47.6708984375,-48.1591796875,-46.6943359375,-44.2041015625,-42.9833984375,-41.2255859375,-39.1259765625,-39.1748046875,-38.1005859375,-38.2470703125,-37.5146484375,-37.8076171875,-38.1982421875,-39.1259765625,-38.5400390625,-39.4677734375,-39.8583984375,-40.3466796875,-40.7861328125,-41.3720703125,-42.3974609375,-43.0322265625,-43.2275390625,-43.5693359375,-44.6923828125,-45.6201171875,-46.2060546875,-46.7431640625,-47.0849609375,-47.0361328125,-45.8642578125,-43.5693359375,-42.0068359375,-41.2744140625,-39.7607421875,-38.7353515625,-38.2470703125,-38.5888671875,-38.5400390625,-39.0771484375,-39.0771484375,-39.0771484375,-39.9072265625,-40.3955078125,-41.5185546875,-41.8603515625,-41.9580078125,-43.2763671875,-43.6181640625,-44.1064453125,-45.0341796875,-45.7666015625,-46.8896484375,-47.4755859375,-47.9150390625,-48.5009765625,-48.8427734375,-48.5986328125,-47.8173828125,-46.0107421875,-44.8876953125,-42.9833984375,-41.5185546875,-40.8837890625,-40.8349609375,-41.0791015625,-40.9326171875,-40.9814453125,-41.1279296875,-41.5185546875,-41.2744140625,-42.2021484375,-43.1787109375,-43.2275390625,-43.3740234375,-44.5947265625,-44.5458984375,-45.3759765625,-45.4736328125,-46.1083984375,-47.1826171875,-46.2060546875,-47.5244140625,-47.8662109375,-48.2080078125,-47.6220703125,-46.8896484375,-44.2529296875,-42.6416015625,-40.5908203125,-39.6630859375,-38.8818359375,-38.9306640625,-38.8330078125,-38.1982421875,-38.3935546875,-38.7353515625,-38.9794921875,-39.1748046875,-39.7607421875,-40.2001953125,-40.7861328125,-41.0302734375,-41.7138671875,-43.2763671875,-42.6904296875,-43.1787109375,-44.4482421875,-44.7412109375,-45.6201171875,-45.4248046875,-46.5478515625,-46.2548828125,-47.0849609375,-44.8388671875,-43.2275390625,-41.5673828125,-40.7861328125,-39.0771484375,-37.5146484375,-37.5146484375,-37.7099609375,-37.3681640625,-37.0751953125,-36.9775390625,-37.5634765625,-37.7099609375,-38.3447265625,-38.5888671875,-39.6630859375,-39.7119140625,-40.5908203125,-41.1767578125,-41.7138671875,-41.7626953125,-42.7392578125,-42.7392578125,-43.8134765625,-44.8876953125,-45.6201171875,-45.5224609375,-44.9853515625,-44.7412109375,-42.9345703125,-41.2255859375,-40.0048828125,-38.4912109375,-38.0517578125,-37.8076171875,-38.1494140625,-37.2705078125,-37.4658203125,-38.1982421875,-37.9052734375,-38.6376953125,-39.6142578125,-40.3466796875,-40.8349609375,-41.5673828125,-42.2021484375,-43.0322265625,-43.6181640625,-44.3505859375,-44.3017578125,-45.3759765625,-46.1083984375,-46.2060546875,-46.8408203125,-47.2802734375,-46.8896484375,-46.0107421875,-44.9853515625,-42.7392578125,-41.6162109375,-40.5419921875,-39.8583984375,-39.5654296875,-39.6630859375,-39.0771484375,-39.2236328125,-39.1259765625,-39.2724609375,-39.7119140625,-40.1025390625,-40.4931640625,-40.6396484375,-41.3720703125,-41.9091796875,-42.1044921875,-42.0068359375,-42.7392578125,-43.3740234375,-43.3740234375,-44.5947265625,-45.1318359375,-45.8642578125,-45.5712890625,-45.2294921875,-44.1552734375,-42.5439453125,-41.2255859375,-39.5166015625,-38.1005859375,-36.8310546875,-36.7333984375,-36.5380859375,-36.1962890625,-36.7333984375,-36.0009765625,-36.5869140625,-37.2705078125,-37.2705078125,-37.4169921875,-38.0517578125,-39.0771484375,-39.4189453125,-39.7119140625,-40.4443359375,-40.8837890625,-41.7138671875,-42.1533203125,-42.9833984375,-42.9345703125,-43.9599609375,-44.1552734375,-43.7158203125,-42.8857421875,-40.9814453125,-39.1748046875,-38.1005859375,-36.0009765625,-35.3173828125,-35.5615234375,-35.1220703125,-34.6337890625,-35.5126953125,-35.3662109375,-35.6103515625,-36.3427734375,-36.3427734375,-37.0263671875,-37.3681640625,-38.4912109375,-39.6630859375,-39.3701171875,-39.7119140625,-40.1513671875,-41.0302734375,-41.3720703125,-42.4951171875,-42.6904296875,-44.0576171875,-43.6669921875,-43.9599609375,-42.9345703125,-40.0537109375,-39.5654296875,-39.2236328125,-37.1728515625,-36.2939453125,-36.0986328125,-36.3916015625,-36.4404296875,-36.1962890625,-36.1474609375,-36.9775390625,-37.3681640625,-37.7099609375,-39.0283203125,-39.0283203125,-39.8583984375,-40.6884765625,-40.8837890625,-41.7626953125,-41.8115234375,-42.4951171875,-43.6669921875,-44.3994140625,-45.2294921875,-45.3271484375,-45.2783203125,-45.6689453125,-44.2529296875,-42.8857421875,-41.6650390625,-40.0048828125,-38.6376953125,-38.4912109375,-38.0029296875,-38.0517578125,-38.1982421875,-37.9541015625,-37.7587890625,-38.1494140625,-38.3447265625,-38.8818359375,-39.3212890625,-39.8583984375,-39.9560546875,-40.3466796875,-40.5419921875,-41.2744140625,-41.7138671875,-41.8115234375,-42.4462890625,-42.3486328125,-43.2763671875,-43.7158203125,-44.3994140625,-43.5693359375,-41.5673828125,-40.2978515625,-38.2958984375,-36.9287109375,-35.7568359375,-34.6826171875,-34.5849609375,-34.3896484375,-34.7314453125,-34.4384765625,-34.3408203125,-34.3408203125,-34.3896484375,-35.0244140625,-35.6591796875,-36.4892578125,-37.2216796875,-37.3193359375,-37.2216796875,-38.0029296875,-38.5888671875,-39.1748046875,-39.5654296875,-40.3466796875,-40.6884765625,-41.5673828125,-41.2744140625,-40.5419921875,-39.4677734375,-37.7587890625,-36.0009765625,-34.2431640625,-33.2666015625,-32.2412109375,-32.8759765625,-31.8505859375,-32.1435546875,-32.9248046875,-32.3876953125,-32.9248046875,-33.6083984375,-33.5107421875,-34.0478515625,-34.7802734375,-35.4638671875,-36.0009765625,-36.4892578125,-37.0751953125,-38.0517578125,-38.0517578125,-39.2724609375,-40.0537109375,-40.2001953125,-40.8837890625,-40.7861328125,-40.2001953125,-38.8818359375,-37.0263671875,-35.7080078125,-34.1943359375,-33.1201171875,-33.4130859375,-32.6806640625,-32.9736328125,-33.0712890625,-32.9248046875,-33.2666015625,-33.6572265625,-34.2919921875,-34.7802734375,-35.2197265625,-36.6357421875,-36.9287109375,-37.6611328125,-38.1005859375,-39.0283203125,-39.5654296875,-40.4931640625,-40.7861328125,-41.4697265625,-41.7138671875,-42.7880859375,-42.1044921875,-40.8349609375,-39.3212890625,-38.0029296875,-36.4404296875,-35.7080078125,-35.3173828125,-35.1708984375,-34.9755859375,-34.1455078125,-34.3896484375,-34.4384765625,-34.6826171875,-34.3896484375,-34.8291015625,-34.9755859375,-35.6103515625,-36.1962890625,-35.9521484375,-36.7333984375,-37.8564453125,-38.1494140625,-38.8330078125,-39.3701171875,-39.9072265625,-39.7119140625,-40.2978515625,-39.7119140625,-39.8095703125,-37.9052734375,-36.0986328125,-34.6826171875,-33.6083984375,-31.8505859375,-31.9970703125,-31.0693359375,-31.4599609375,-31.5576171875,-31.3134765625,-30.9716796875,-30.9716796875,-32.7783203125,-32.1923828125,-33.4619140625,-33.6083984375,-34.3896484375,-34.2431640625,-35.6591796875,-35.9033203125,-35.6103515625,-37.1240234375,-37.4169921875,-37.9052734375,-38.9306640625,-38.6865234375,-38.7353515625,-36.9775390625,-35.8056640625,-33.6572265625,-33.1689453125,-31.3134765625,-30.2392578125,-30.3369140625,-28.8720703125,-29.5068359375,-29.6533203125,-29.7021484375,-30.2880859375,-29.7509765625,-30.7275390625,-30.9228515625,-32.0458984375,-32.9248046875,-33.0224609375,-34.1943359375,-34.8291015625,-35.3662109375,-35.9033203125,-36.9775390625,-37.4169921875,-38.3447265625,-38.9306640625,-39.0283203125,-38.6376953125,-38.1494140625,-35.6103515625,-34.4873046875,-32.8759765625,-31.6552734375,-30.9228515625,-31.2158203125,-31.2158203125,-31.0693359375,-31.5087890625,-31.4111328125,-31.8505859375,-32.1435546875,-33.5107421875,-33.7060546875,-34.1455078125,-34.8779296875,-35.9033203125,-36.8310546875,-36.6845703125,-37.4658203125,-38.5400390625,-38.7841796875,-39.3701171875,-40.2490234375,-40.5908203125,-41.1279296875,-40.5908203125,-39.2724609375,-37.6123046875,-35.9033203125,-34.7802734375,-33.7548828125,-33.1201171875,-32.8271484375,-33.0224609375,-32.9248046875,-32.6318359375,-32.5830078125,-32.4365234375,-32.7294921875,-33.4130859375,-33.6572265625,-34.2431640625,-34.5849609375,-34.7314453125,-35.1708984375,-35.7568359375,-36.2451171875,-36.7822265625,-37.6123046875,-38.0029296875,-38.6376953125,-38.9306640625,-38.6865234375,-38.3447265625,-36.1474609375,-34.0966796875,-32.8759765625,-31.3134765625,-30.0439453125,-29.7509765625,-30.5810546875,-29.4091796875,-29.6533203125,-29.1650390625,-29.9462890625,-29.9462890625,-30.2392578125,-31.1669921875,-31.7529296875,-32.1923828125,-33.5107421875,-33.2666015625,-34.1943359375,-34.6826171875,-35.3173828125,-36.0986328125,-36.3427734375,-36.9775390625,-37.8076171875,-38.1005859375,-37.8564453125,-37.1240234375,-36.0009765625,-34.0966796875,-32.3876953125,-30.9716796875,-29.9462890625,-29.3115234375,-29.1650390625,-29.7509765625,-28.7744140625,-28.8720703125,-29.7509765625,-29.3603515625,-29.7021484375,-30.5810546875,-30.2392578125,-32.1923828125,-32.9248046875,-33.5595703125,-34.2431640625,-34.7802734375,-35.3662109375,-36.0009765625,-36.3916015625,-37.2705078125,-38.1982421875,-39.1259765625,-38.9306640625,-38.9306640625,-37.0751953125,-35.8544921875,-33.8037109375,-32.9248046875,-32.2412109375,-31.4111328125,-31.6064453125,-31.5576171875,-32.2900390625,-31.8505859375,-31.9482421875,-32.4853515625,-33.2177734375,-33.1201171875,-34.3896484375,-35.4638671875,-36.0498046875,-36.7822265625,-37.7587890625,-38.1982421875,-38.6376953125,-38.8818359375,-39.7607421875,-40.2978515625,-40.7373046875,-41.5185546875,-41.6162109375,-41.1279296875,-39.9560546875,-38.6865234375,-36.8310546875,-35.3173828125,-34.7802734375,-33.4619140625,-33.8037109375,-33.8037109375,-33.3154296875,-33.5595703125,-33.1201171875,-33.5107421875,-33.9501953125,-34.1455078125,-34.6826171875,-34.8291015625,-35.3662109375,-36.3916015625,-36.6357421875,-37.2705078125,-37.1728515625,-37.0751953125,-38.3447265625,-38.7353515625,-39.3212890625,-39.8095703125,-39.7607421875,-38.9306640625,-37.6611328125,-36.4404296875,-34.2919921875,-32.9248046875,-31.8994140625,-30.9716796875,-30.8740234375,-30.3857421875,-30.2392578125,-30.1416015625,-30.9228515625,-30.7763671875,-30.9716796875,-31.4111328125,-31.2646484375,-32.4853515625,-32.9736328125,-33.5595703125,-34.5361328125,-34.2431640625,-34.9267578125,-35.8544921875,-36.2939453125,-37.1240234375,-37.4658203125,-37.5146484375,-37.9541015625,-38.1494140625,-36.5869140625,-35.4638671875,-33.8037109375,-32.3876953125,-31.2158203125,-29.5556640625,-29.2138671875,-29.1650390625,-29.1650390625,-29.2626953125,-28.9697265625,-29.4580078125,-29.8974609375,-30.2880859375,-31.2158203125,-31.4111328125,-32.8759765625,-32.9736328125,-34.3408203125,-34.3896484375,-34.7314453125,-36.0009765625,-36.2939453125,-36.8310546875,-37.4658203125,-38.6376953125,-38.4912109375,-38.3935546875,-37.5634765625,-35.9521484375,-34.5361328125,-33.4619140625,-31.9970703125,-30.9228515625,-31.6064453125,-31.1181640625,-31.4111328125,-31.7041015625,-30.8740234375,-31.5576171875,-32.5830078125,-33.0712890625,-33.1201171875,-33.8525390625,-35.0732421875,-35.2197265625,-35.8544921875,-36.4892578125,-37.3193359375,-37.5634765625,-37.8076171875,-38.4912109375,-38.8818359375,-39.8583984375,-40.5908203125,-40.2001953125,-39.1748046875,-36.6357421875,-35.9033203125,-34.6337890625,-33.4619140625,-32.0947265625,-32.2900390625,-31.8017578125,-31.9970703125,-31.8994140625,-31.9970703125,-31.8017578125,-32.3876953125,-33.1689453125,-32.8271484375,-34.0966796875,-34.3896484375,-34.5361328125,-35.4638671875,-35.5126953125,-36.3427734375,-36.7333984375,-37.6611328125,-37.5634765625,-38.2470703125,-38.5888671875,-38.7841796875,-38.4423828125,-37.4169921875,-35.6591796875,-34.0478515625,-31.6064453125,-30.0927734375,-30.1904296875,-30.4345703125,-29.3603515625,-29.2626953125,-29.0673828125,-29.5068359375,-28.9697265625,-30.1904296875,-30.2392578125,-30.4345703125,-31.1181640625,-31.8017578125,-31.9970703125,-33.1201171875,-33.5107421875,-33.8037109375,-34.1455078125,-34.8779296875,-35.6591796875,-36.3427734375,-36.7822265625,-37.0751953125,-36.1962890625,-35.7080078125,-34.3408203125,-32.8271484375,-31.3134765625,-29.7021484375,-28.3837890625,-28.6279296875,-27.9931640625,-27.8466796875,-27.7978515625,-28.2373046875,-28.5302734375,-28.6767578125,-28.9697265625,-29.3603515625,-30.5810546875,-30.4833984375,-31.5576171875,-32.7783203125,-32.7294921875,-34.0478515625,-33.8525390625,-34.5849609375,-35.6103515625,-36.2939453125,-36.7333984375,-37.4658203125,-37.7099609375,-37.3193359375,-35.4638671875,-34.6826171875,-33.1689453125,-31.3623046875,-30.2392578125,-29.7021484375,-30.0439453125,-30.1904296875,-29.8974609375,-30.3369140625,-30.8251953125,-31.2158203125,-30.9716796875,-31.9970703125,-32.5341796875,-33.3154296875,-34.0966796875,-34.7802734375,-35.0244140625,-35.4150390625,-36.2939453125,-36.9287109375,-38.1982421875,-38.1005859375,-38.5888671875,-38.5400390625,-39.1748046875,-38.5400390625,-37.5146484375,-35.7080078125,-33.8525390625,-32.1435546875,-31.1669921875,-31.1669921875,-30.8740234375,-30.1904296875,-30.0439453125,-30.2880859375,-30.3857421875,-30.3857421875,-30.6298828125,-30.7763671875,-31.3134765625,-32.1923828125,-32.5830078125,-33.3642578125,-33.4619140625,-33.4619140625,-34.3408203125,-34.7802734375,-35.3173828125,-36.0009765625,-36.0009765625,-37.0263671875,-36.8798828125,-36.3427734375,-34.6826171875,-33.2666015625,-31.3134765625,-29.5556640625,-28.4814453125,-27.2119140625,-27.5048828125,-26.9189453125,-27.3095703125,-27.5537109375,-27.4560546875,-27.1630859375,-28.1396484375,-28.3837890625,-28.7744140625,-29.3603515625,-30.3369140625,-30.7763671875,-31.3623046875,-32.5341796875,-33.2177734375,-33.4130859375,-33.7060546875,-34.1455078125,-34.7314453125,-35.4150390625,-36.0498046875,-36.0986328125,-33.9013671875,-31.6552734375,-30.4833984375,-29.4091796875,-27.6025390625,-26.9189453125,-26.5771484375,-26.9189453125,-26.9677734375,-27.0654296875,-26.8701171875,-26.8212890625,-27.8466796875,-28.2861328125,-29.0185546875,-29.6533203125,-30.4833984375,-31.0205078125,-31.8017578125,-32.4365234375,-32.9248046875,-33.6083984375,-34.2431640625,-35.3662109375,-35.6591796875,-36.0498046875,-36.6845703125,-36.2939453125,-35.4150390625,-34.0966796875,-31.9970703125,-30.5810546875,-30.4833984375,-29.0673828125,-29.4091796875,-29.1650390625,-29.1650390625,-29.5556640625,-29.3603515625,-29.3115234375,-29.9951171875,-30.2392578125,-30.7275390625,-31.3134765625,-31.5576171875,-32.0458984375,-32.6318359375,-33.4619140625,-33.4619140625,-34.5361328125,-34.8779296875,-34.6826171875,-35.6591796875,-35.5126953125,-35.8544921875,-35.5126953125,-33.8037109375,-32.9248046875,-30.5322265625,-29.0185546875,-28.1396484375,-27.3583984375,-27.5537109375,-27.4560546875,-27.1142578125,-27.6025390625,-26.9677734375,-27.3583984375,-27.7001953125,-28.2373046875,-28.4326171875,-28.8720703125,-30.0927734375,-30.3369140625,-30.9228515625,-31.0205078125,-31.7529296875,-31.8017578125,-32.5341796875,-34.1943359375,-34.3896484375,-33.8525390625,-34.1943359375,-33.9501953125,-32.6806640625,-31.1669921875,-29.0185546875,-27.3095703125,-26.7236328125,-25.3564453125,-24.7705078125,-25.0146484375,-24.6240234375,-25.5029296875,-24.6728515625,-24.6240234375,-25.5029296875,-26.0400390625,-25.9423828125,-26.9189453125,-27.5537109375,-27.8955078125,-28.2861328125,-28.3349609375,-29.8974609375,-30.6787109375,-31.0205078125,-31.6552734375,-32.2900390625,-32.7294921875,-32.8271484375,-32.5341796875,-31.0693359375,-29.3603515625,-27.9443359375,-26.6259765625,-25.4541015625,-25.1611328125,-24.3798828125,-24.9169921875,-24.4287109375,-24.5263671875,-25.2099609375,-25.0634765625,-25.9423828125,-26.1865234375,-26.9189453125,-27.5048828125,-28.4326171875,-29.3603515625,-29.7509765625,-30.4833984375,-30.9228515625,-32.1435546875,-32.0458984375,-33.4130859375,-34.7314453125,-34.3896484375,-34.5849609375,-34.0966796875,-32.3876953125,-31.1669921875,-29.0185546875,-27.9931640625,-27.3583984375,-26.7724609375,-26.8212890625,-26.4306640625,-25.8447265625,-26.2353515625,-25.8447265625,-26.1376953125,-26.7236328125,-27.2119140625,-27.5537109375,-28.5302734375,-28.4326171875,-29.0185546875,-29.7021484375,-30.2392578125,-30.4833984375,-31.5087890625,-31.5576171875,-31.6064453125,-32.2900390625,-32.7294921875,-33.0712890625,-31.8994140625,-30.0439453125,-28.7255859375,-27.5048828125,-25.3564453125,-24.5263671875,-24.0869140625,-24.0380859375,-24.2822265625,-23.8427734375,-23.9404296875,-24.5263671875,-25.0146484375,-25.2587890625,-26.0400390625,-26.9189453125,-27.0654296875,-27.5537109375,-28.3349609375,-29.0673828125,-29.2138671875,-30.1904296875,-30.2392578125,-31.2646484375,-32.2412109375,-32.5830078125,-33.0224609375,-32.7294921875,-31.9482421875,-30.5810546875,-28.7255859375,-27.0654296875,-25.8447265625,-24.6240234375,-24.1845703125,-23.9404296875,-23.9404296875,-23.9404296875,-24.1357421875,-23.9892578125,-24.5263671875,-25.1611328125,-25.7470703125,-26.8212890625,-27.3095703125,-28.0908203125,-28.6767578125,-29.3603515625,-29.9462890625,-30.0927734375,-31.0693359375,-32.5830078125,-32.5341796875,-33.7060546875,-33.8037109375,-33.9501953125,-33.6572265625,-31.5576171875,-30.7763671875,-29.2138671875,-28.2861328125
PPG_subj_10,56,F,N,Prediabetic,121,34.0052,Earlobe,0.185546875,0.185546875,0.185546875,0.185546875,0.185546875,0.185546875,85.9716796875,18.8427734375,29.1455078125,36.7138671875,42.2802734375,47.0654296875,50.0439453125,52.2412109375,50.4345703125,49.8486328125,49.8974609375,49.7021484375,48.8232421875,47.8466796875,46.3330078125,44.2822265625,41.9384765625,39.5458984375,37.4462890625,35.4931640625,33.7353515625,31.4892578125,30.1708984375,28.2666015625,25.7763671875,23.7255859375,20.7958984375,18.8916015625,16.9873046875,17.3291015625,26.0205078125,36.5185546875,44.0869140625,48.9208984375,53.7060546875,57.4658203125,58.5888671875,58.3447265625,56.4892578125,56.1962890625,55.2685546875,53.9013671875,52.6806640625,50.8251953125,49.3115234375,46.7236328125,43.7451171875,42.4755859375,39.5947265625,38.1787109375,35.4443359375,34.0771484375,32.0263671875,30.4638671875,27.6318359375,25.1904296875,24.4580078125,22.4072265625,23.6279296875,32.7587890625,42.6220703125,49.6044921875,54.2919921875,58.8330078125,61.6162109375,62.8857421875,60.8349609375,60.3955078125,59.0283203125,57.9052734375,57.4658203125,55.7080078125,53.1689453125,50.2392578125,47.6513671875,45.4052734375,43.1591796875,41.1572265625,38.2275390625,37.3486328125,34.8583984375,33.4423828125,30.7568359375,27.9248046875,25.5810546875,24.1650390625,22.4560546875,24.1650390625,33.1982421875,43.1591796875,49.9462890625,54.8291015625,58.4423828125,61.3720703125,60.4443359375,58.8330078125,58.4423828125,57.8076171875,56.4404296875,55.4150390625,53.5595703125,51.6552734375,49.2138671875,46.7724609375,45.4052734375,43.1103515625,41.1083984375,39.5458984375,37.6904296875,36.0791015625,34.1259765625,32.5634765625,30.1220703125,28.9501953125,27.0947265625,26.8017578125,34.5166015625,44.6728515625,52.6318359375,58.7353515625,62.6904296875,66.2060546875,67.4755859375,66.1083984375,65.3759765625,64.7900390625,63.8134765625,64.1552734375,62.4951171875,60.6396484375,58.4912109375,56.0986328125,53.9990234375,51.8017578125,49.4580078125,47.8466796875,45.8935546875,44.4287109375,42.1826171875,40.2294921875,37.2509765625,35.1513671875,33.1005859375,31.6357421875,35.5419921875,46.0400390625,54.9755859375,61.4697265625,66.7431640625,69.8681640625,72.5537109375,72.2119140625,70.2099609375,68.8916015625,67.6708984375,66.8408203125,65.0830078125,62.6904296875,59.8583984375,57.3681640625,54.4873046875,52.0458984375,48.9208984375,46.4306640625,43.6962890625,41.2060546875,39.7412109375,37.3974609375,35.0048828125,31.4892578125,29.8779296875,28.0712890625,26.8017578125,34.0283203125,43.6474609375,52.2412109375,58.0029296875,63.1787109375,66.2060546875,68.5498046875,66.8896484375,65.2294921875,64.9365234375,63.4228515625,62.8369140625,61.2255859375,59.1748046875,56.5380859375,54.0966796875,51.9482421875,49.4580078125,46.7236328125,43.7939453125,41.9873046875,39.6923828125,37.5439453125,34.8095703125,32.6123046875,30.0732421875,27.6318359375,26.4111328125,26.5576171875,33.8818359375,44.0869140625,51.1181640625,57.7099609375,61.1279296875,65.1318359375,66.4013671875,64.7900390625,63.5205078125,62.1044921875,61.0791015625,60.0048828125,57.8076171875,56.0498046875,53.6083984375,50.2880859375,49.0185546875,46.2353515625,43.5009765625,41.3037109375,39.3017578125,37.0556640625,35.3466796875,33.3447265625,29.8291015625,28.2666015625,25.5322265625,24.5068359375,24.2138671875,32.6123046875,41.7431640625,50.1904296875,54.9267578125,59.5654296875,61.7138671875,61.4697265625,60.0537109375,59.0283203125,58.5400390625,57.5634765625,56.1962890625,54.8291015625,52.6318359375,50.3369140625,48.1396484375,46.4794921875,43.4033203125,41.5966796875,40.0341796875,38.3251953125,37.0068359375,35.0537109375,32.9052734375,30.8056640625,28.5595703125,26.7529296875,25.7763671875,28.6572265625,39.2041015625,48.0908203125,55.1220703125,59.6142578125,64.0576171875,67.7197265625,66.7919921875,65.3759765625,64.6923828125,64.6435546875,63.4228515625,61.7138671875,60.2490234375,58.0517578125,55.1708984375,53.0224609375,50.8740234375,49.1162109375,47.2119140625,44.5263671875,42.9150390625,41.0595703125,38.7646484375,36.5185546875,33.9794921875,31.7333984375,30.4150390625,30.0732421875,36.4697265625,47.0166015625,55.5126953125,61.5185546875,66.6455078125,70.7958984375,72.8955078125,71.0888671875,69.3798828125,68.8916015625,67.5244140625,66.4501953125,65.1806640625,62.8369140625,61.1279296875,58.2470703125,55.5615234375,52.4853515625,50.5322265625,48.1884765625,45.2587890625,43.5009765625,41.2548828125,39.4970703125,36.3720703125,34.1748046875,31.9287109375,30.4150390625,29.3408203125,37.1044921875,46.9189453125,55.4638671875,60.6884765625,66.0107421875,69.2822265625,71.9189453125,69.8193359375,68.1103515625,67.5244140625,66.4990234375,65.3759765625,63.7158203125,61.2255859375,57.9541015625,55.4638671875,53.0224609375,50.2392578125,47.5048828125,45.9423828125,43.2568359375,40.6689453125,38.7646484375,36.3232421875,34.2236328125,31.3427734375,29.6337890625,27.2412109375,26.7529296875,33.9306640625,44.5751953125,52.7294921875,57.7587890625,61.9091796875,64.5947265625,66.2060546875,64.3505859375,63.2275390625,63.0810546875,61.2744140625,60.3955078125,59.4189453125,58.0517578125,55.2685546875,53.4130859375,50.3857421875,48.9697265625,46.4306640625,44.1845703125,42.0849609375,41.1572265625,39.8388671875,36.5673828125,34.7607421875,32.2216796875,30.6103515625,29.2919921875,32.1728515625,41.0595703125,51.5576171875,58.6376953125,64.3017578125,69.0380859375,71.9677734375,72.1630859375,69.6728515625,70.2587890625,69.1845703125,68.7939453125,67.2314453125,66.4990234375,64.2529296875,61.7138671875,60.0048828125,58.3447265625,55.5126953125,53.2666015625,51.4111328125,50.0927734375,47.7978515625,45.5029296875,43.1103515625,40.7177734375,38.6181640625,36.8603515625,36.1279296875,40.8642578125,51.8017578125,60.8837890625,68.1591796875,72.3583984375,76.9482421875,79.0966796875,78.5107421875,76.8017578125,76.0693359375,75.1904296875,73.7744140625,72.3095703125,69.2333984375,67.3779296875,64.1552734375,61.4208984375,58.7841796875,56.6357421875,53.1201171875,50.4345703125,49.1650390625,46.2841796875,44.1357421875,41.7919921875,38.6181640625,35.9326171875,34.4677734375,33.0029296875,40.2783203125,51.0205078125,58.6376953125,64.8388671875,68.8916015625,72.0654296875,72.8955078125,71.6748046875,70.4052734375,69.2822265625,68.5009765625,67.1337890625,64.7412109375,62.2509765625,59.4189453125,56.5869140625,54.3408203125,51.2158203125,48.8232421875,46.7236328125,44.6728515625,41.6943359375,39.9365234375,37.6416015625,35.0048828125,32.2216796875,30.5126953125,28.9501953125,30.1220703125,38.4228515625,48.6279296875,54.8291015625,60.3955078125,64.0087890625,67.3291015625,67.6220703125,65.1806640625,64.3017578125,63.2763671875,61.9091796875,60.5908203125,59.0283203125,56.4404296875,53.8037109375,52.0458984375,49.6533203125,47.0654296875,45.0146484375,43.8427734375,41.5966796875,40.0341796875,37.2509765625,35.4931640625,33.0029296875,30.8056640625,29.6337890625,29.3408203125,36.5673828125,46.0888671875,54.6337890625,60.5419921875,64.8388671875,68.5986328125,69.6728515625,68.4521484375,67.2802734375,66.5966796875,66.3037109375,65.1806640625,64.4970703125,62.2021484375,59.8583984375,58.4912109375,55.2197265625,54.1455078125,51.8994140625,50.1416015625,48.1884765625,46.5771484375,44.7216796875,42.7685546875,40.9619140625,38.8134765625,37.1044921875,36.9580078125,42.2802734375,53.9013671875,61.7138671875,68.4033203125,73.5791015625,77.4365234375,80.1708984375,78.3154296875,77.1435546875,76.1669921875,75.6787109375,74.4580078125,72.9931640625,71.0400390625,68.6962890625,66.4501953125,63.4228515625,60.8837890625,58.4423828125,55.7568359375,54.0966796875,52.2412109375,49.7998046875,48.2861328125,45.3076171875,42.7197265625,41.0107421875,39.6435546875,43.3056640625,53.4130859375,62.3486328125,69.7705078125,74.9462890625,78.8037109375,81.3427734375,81.0009765625,78.9501953125,77.5341796875,76.8017578125,75.3369140625,73.1884765625,72.0166015625,68.8916015625,66.6455078125,63.4716796875,60.5908203125,58.1494140625,55.2197265625,53.0224609375,51.3623046875,48.0419921875,45.0146484375,42.8662109375,40.1318359375,37.5439453125,35.8349609375,36.0302734375,44.0380859375,53.5107421875,60.9814453125,66.0107421875,70.1123046875,73.1884765625,73.7255859375,71.1376953125,69.9658203125,68.5009765625,67.7685546875,66.4501953125,63.9111328125,61.2255859375,58.7841796875,56.2451171875,54.1943359375,51.2158203125,49.4580078125,46.8701171875,45.1123046875,43.0615234375,41.1572265625,38.2763671875,36.1279296875,34.9072265625,32.8076171875,32.9541015625,41.0107421875,51.1181640625,58.0029296875,63.1298828125,68.1591796875,70.0146484375,70.1611328125,67.7685546875,66.9873046875,66.5478515625,65.3271484375,63.7646484375,62.6904296875,60.5908203125,58.4423828125,56.0009765625,53.8525390625,52.1923828125,49.9951171875,47.8466796875,46.0400390625,44.4287109375,42.1826171875,40.1806640625,37.4951171875,34.8583984375,33.9794921875,34.8095703125,43.6962890625,53.3154296875,61.1279296875,66.5966796875,71.3818359375,74.5556640625,75.0927734375,73.4814453125,72.4072265625,71.1376953125,70.2587890625,68.5009765625,67.3779296875,65.1806640625,62.3974609375,59.3701171875,56.6845703125,53.9501953125,51.4599609375,49.3115234375,46.9189453125,44.8193359375,41.8896484375,39.2041015625,37.4951171875,35.1025390625,33.2958984375,31.4892578125,36.2744140625,46.7236328125,56.1962890625,62.2509765625,67.3779296875,70.9912109375,73.0908203125,71.6748046875,69.3310546875,68.0126953125,67.2314453125,65.1806640625,62.7392578125,61.0302734375,57.3193359375,55.0732421875,51.9482421875,49.0673828125,45.7470703125,42.4267578125,40.0341796875,37.4951171875,35.0048828125,32.7099609375,29.9755859375,26.8017578125,24.3603515625,21.7236328125,21.0400390625,27.5341796875,37.7392578125,45.0634765625,51.4111328125,54.7802734375,57.6611328125,57.8564453125,55.8544921875,53.9501953125,53.0712890625,52.2412109375,50.5810546875,48.1884765625,46.0888671875,43.7451171875,40.6201171875,38.3740234375,35.2001953125,33.2958984375,30.8544921875,28.9990234375,26.3134765625,24.5068359375,22.3583984375,19.8681640625,17.0849609375,15.5712890625,14.2529296875,18.9404296875,30.1708984375,38.3740234375,45.3564453125,49.3603515625,52.6806640625,55.0732421875,53.2177734375,52.2900390625,51.4599609375,51.4111328125,50.1416015625,48.7255859375,46.4794921875,44.6240234375,42.2314453125,39.3505859375,37.8857421875,35.3466796875,32.9052734375,31.2939453125,30.1220703125,27.6806640625,25.2880859375,23.1884765625,20.4541015625,18.5009765625,17.3291015625,21.5771484375,32.1240234375,41.3525390625,48.2861328125,53.9013671875,57.5634765625,60.8837890625,60.1513671875,59.0283203125,57.9541015625,56.5380859375,56.0498046875,55.3662109375,52.8759765625,50.0927734375,47.7001953125,45.4052734375,43.0615234375,40.4248046875,38.0322265625,35.5908203125,34.6142578125,31.2451171875,29.3896484375,26.1669921875,23.7744140625,21.2841796875,20.1611328125,19.1357421875,27.3388671875,37.8369140625,46.2353515625,53.0224609375,57.7099609375,60.7861328125,63.1298828125,61.4208984375,60.0537109375,59.7607421875,58.4423828125,57.3193359375,55.6103515625,53.5107421875,50.6787109375,47.9443359375,45.4541015625,42.7685546875,40.3271484375,37.6904296875,35.3466796875,32.9052734375,30.8056640625,28.6083984375,26.2158203125,22.2119140625,20.2099609375,18.0615234375,18.4521484375,26.6552734375,37.0556640625,44.1357421875,49.9951171875,53.9501953125,57.4169921875,57.1728515625,54.8779296875,53.0712890625,52.8271484375,51.1669921875,49.9951171875,47.3095703125,45.2587890625,42.5244140625,39.8876953125,36.7626953125,34.5166015625,32.4169921875,30.0244140625,27.7783203125,26.0205078125,23.0908203125,20.5517578125,18.8427734375,16.0595703125,14.5458984375,13.2275390625,17.5244140625,28.0224609375,36.3232421875,42.4755859375,45.8447265625,49.2138671875,50.8740234375,48.7255859375,48.6279296875,47.8466796875,47.0654296875,45.4052734375,43.5986328125,41.5966796875,39.6923828125,36.8603515625,35.4443359375,33.3935546875,30.8056640625,28.4130859375,27.4365234375,26.1181640625,23.4814453125,21.5283203125,18.8916015625,17.3291015625,15.6201171875,14.3994140625,18.8427734375,30.0244140625,38.7646484375,44.8681640625,50.1416015625,53.2666015625,56.1962890625,54.6337890625,52.8271484375,52.8759765625,52.2900390625,51.4111328125,50.3369140625,47.9931640625,45.6005859375,43.3544921875,40.7177734375,39.1064453125,36.6650390625,34.3212890625,32.2216796875,30.4150390625,28.5595703125,25.8740234375,23.5791015625,21.1865234375,19.6728515625,17.9638671875,20.4541015625,30.8056640625,39.7412109375,47.3095703125,52.8271484375,57.8076171875,61.9091796875,61.9091796875,59.9072265625,58.9794921875,57.5146484375,56.7333984375,55.0732421875,53.1689453125,50.7275390625,48.0908203125,45.6982421875,43.0615234375,39.9365234375,37.8369140625,35.8837890625,33.0029296875,31.5380859375,29.3896484375,27.4853515625,24.2626953125,21.9189453125,20.3076171875,18.9892578125,23.8232421875,33.9794921875,42.6708984375,48.6279296875,53.6572265625,57.4169921875,59.5654296875,57.7099609375,56.0498046875,54.3408203125,53.5595703125,52.0947265625,49.8974609375,47.3583984375,44.4775390625,41.7919921875,39.2529296875,36.8115234375,33.4423828125,31.1962890625,28.4619140625,26.6064453125,23.8720703125,22.1630859375,19.0869140625,17.0361328125,14.4482421875,13.1787109375,13.3740234375,22.4072265625,32.2705078125,38.7646484375,44.2822265625,47.7001953125,50.1904296875,49.8974609375,48.5791015625,47.7978515625,46.4306640625,45.4052734375,44.3798828125,42.6220703125,40.4248046875,38.5693359375,35.6884765625,33.2958984375,31.2451171875,29.0966796875,27.0947265625,25.9228515625,23.5302734375,21.4306640625,19.3798828125,17.0361328125,14.7412109375,13.7158203125,13.1298828125,21.1865234375,31.1474609375,39.4970703125,45.8935546875,50.5322265625,53.5595703125,55.1220703125,53.5595703125,51.7041015625,50.9716796875,50.2880859375,49.3115234375,46.8701171875,45.1123046875,42.2802734375,39.6435546875,36.5185546875,34.3212890625,32.3681640625,29.4384765625,27.2412109375,25.4345703125,23.4814453125,20.4541015625,18.0615234375,15.1806640625,13.4228515625,11.6162109375,13.2763671875,23.6279296875,33.7353515625,41.4013671875,46.9189453125,50.9716796875,52.8759765625,53.9501953125,51.0205078125,49.5556640625,48.5302734375,47.4072265625,45.8447265625,43.1591796875,39.7900390625,37.1044921875,34.4677734375,30.9521484375,27.9248046875,25.5322265625,22.2119140625,20.0146484375,17.9638671875,15.1806640625,12.2998046875,9.8095703125,6.5869140625,4.5361328125,2.3388671875,4.5361328125,15.6201171875,24.0673828125,31.5869140625,35.5908203125,39.2041015625,41.4013671875,40.3759765625,38.8134765625,37.4462890625,36.5673828125,35.9326171875,33.8330078125,31.9775390625,29.3896484375,26.5087890625,23.6767578125,21.6259765625,19.4775390625,16.5478515625,14.9853515625,13.4716796875,11.5185546875,8.7841796875,6.4892578125,4.3896484375,2.0458984375,1.1181640625,2.1923828125,11.5673828125,20.9423828125,29.2431640625,34.9560546875,38.7646484375,41.5966796875,41.9873046875,39.9853515625,39.5947265625,38.0322265625,37.4462890625,35.9326171875,34.5166015625,32.2216796875,29.9755859375,27.3876953125,25.0927734375,22.4560546875,20.1611328125,18.0126953125,16.3525390625,13.5205078125,11.9580078125,9.4677734375,6.6845703125,4.8779296875,3.8525390625,2.4365234375,8.7353515625,19.3310546875,29.0966796875,35.3955078125,40.3271484375,44.6240234375,46.3818359375,45.9423828125,44.8681640625,44.4287109375,42.9638671875,42.3291015625,40.2783203125,38.3740234375,36.0791015625,33.6376953125,31.0986328125,28.5107421875,25.9228515625,22.7001953125,21.1865234375,19.3310546875,16.9873046875,14.4970703125,11.7626953125,9.3701171875,7.0751953125,5.2197265625,6.4404296875,15.9619140625,26.2646484375,33.2958984375,39.3994140625,43.2080078125,45.9912109375,45.9423828125,44.2822265625,42.9638671875,41.6943359375,40.3271484375,39.0576171875,36.7138671875,34.1259765625,31.8310546875,29.1455078125,26.4599609375,23.8232421875,20.6494140625,18.5009765625,16.9873046875,14.3505859375,12.0068359375,9.9560546875,6.6845703125,4.8291015625,2.8759765625,1.2158203125,7.5146484375,17.9638671875,25.8740234375,32.0751953125,35.5419921875,37.9833984375,38.6669921875,36.7138671875,36.2255859375,34.4189453125,33.8818359375,33.2470703125,31.1962890625,29.8291015625,26.9482421875,24.7998046875,23.3349609375,20.2587890625,18.2568359375,16.5966796875,14.7900390625,12.9345703125,10.1513671875,8.3935546875,6.1474609375,4.0966796875,2.3876953125,0.7763671875,7.6611328125,18.5009765625,26.9970703125,33.9306640625,38.8623046875,42.3779296875,45.3076171875,43.6962890625,42.2314453125,41.9873046875,40.5712890625,39.2529296875,38.2763671875,36.6650390625,33.5400390625,30.6103515625,28.9013671875,26.4599609375,24.1650390625,21.8701171875,20.2099609375,18.0126953125,15.9619140625,13.6181640625,11.0302734375,8.8818359375,6.9287109375,5.3662109375,7.0263671875,16.8408203125,27.1923828125,34.9560546875,40.8642578125,44.9169921875,47.8466796875,48.0908203125,46.5283203125,44.6728515625,44.2822265625,43.1591796875,41.4013671875,39.1552734375,37.4462890625,34.7119140625,31.3427734375,29.1943359375,25.9228515625,23.8232421875,21.0888671875,18.5009765625,16.3037109375,13.5205078125,10.1513671875,7.8564453125,5.5615234375,3.0712890625,2.1923828125,8.3935546875,19.5263671875,27.3388671875,32.2216796875,36.6162109375,39.9365234375,40.9130859375,40.0830078125,37.4462890625,37.0068359375,35.8349609375,33.4423828125,31.5380859375,29.5849609375,27.3388671875,24.6044921875,21.2353515625,19.1845703125,16.7431640625,14.4970703125,11.9091796875,10.2490234375,8.4912109375,5.2685546875,2.5830078125,0.2880859375,-1.1767578125,-2.6416015625,0.6787109375,10.5908203125,20.2587890625,26.7529296875,31.2939453125,34.9560546875,36.9580078125,35.5908203125,34.2724609375,33.8330078125,32.6123046875,31.1962890625,30.0244140625,28.1689453125,25.8251953125,23.3837890625,21.7724609375,19.2333984375,17.3779296875,14.9853515625,13.1298828125,11.7138671875,9.7607421875,7.1240234375,4.0966796875,3.0712890625,0.0927734375,-1.2744140625,0.3857421875,11.0302734375,21.6259765625,28.8525390625,34.8583984375,39.1064453125,42.3291015625,43.3544921875,40.4248046875,40.1318359375,38.8134765625,37.5927734375,36.3232421875,34.5654296875,31.7822265625,29.6826171875,27.4365234375,24.7021484375,21.9189453125,19.9658203125,16.7919921875,15.2294921875,13.2763671875,11.3232421875,9.9560546875,5.8544921875,3.2177734375,1.7529296875,0.1904296875,2.6806640625,13.9599609375,23.8720703125,30.8544921875,36.4697265625,40.6201171875,43.5009765625,43.3544921875,41.2548828125,40.5224609375,40.2783203125,38.7646484375,36.2744140625,34.7607421875,32.6611328125,29.9755859375,27.0458984375,24.5556640625,21.7724609375,19.6240234375,16.8896484375,14.7412109375,13.0810546875,10.9814453125,8.0517578125,5.8544921875,3.0712890625,0.3857421875,-1.0302734375,-0.8837890625,8.5888671875,19.2333984375,26.6552734375,33.2470703125,36.4208984375,39.8876953125,40.4248046875,36.9580078125,35.8349609375,34.9560546875,33.4912109375,31.9287109375,29.9755859375,27.0947265625,24.3603515625,21.1376953125,18.8427734375,16.1083984375,13.2275390625,11.0791015625,8.8330078125,6.9287109375,4.7314453125,1.8505859375,-0.4931640625,-3.7158203125,-5.8642578125,-7.4755859375,-8.2568359375,-0.0537109375,10.3466796875,17.9150390625,23.7255859375,27.3388671875,30.1220703125,30.0732421875,28.9990234375,27.7783203125,26.6552734375,25.5322265625,23.9208984375,22.6025390625,20.7470703125,18.3544921875,16.0107421875,13.5205078125,11.1767578125,8.8818359375,7.1728515625,4.9755859375,3.1689453125,1.3623046875,-0.8837890625,-2.7880859375,-5.2294921875,-7.0849609375,-8.9404296875,-6.8896484375,3.0712890625,13.3740234375,21.1376953125,26.3623046875,30.6103515625,33.7353515625,34.0283203125,31.4404296875,31.1962890625,30.0732421875,28.9990234375,28.2666015625,26.7041015625,23.8232421875,21.3330078125,18.7939453125,16.3525390625,14.3994140625,12.2998046875,9.4189453125,7.5146484375,5.3662109375,3.5107421875,1.5087890625,-1.6650390625,-3.7646484375,-6.4990234375,-8.0126953125,-4.9365234375,5.4638671875,16.2060546875,23.6767578125,30.1220703125,34.6142578125,38.4716796875,39.0576171875,37.0556640625,36.1767578125,34.6630859375,34.2724609375,32.4658203125,30.0244140625,28.4619140625,24.7509765625,23.0908203125,20.5029296875,18.3056640625,15.3759765625,13.2275390625,10.6396484375,8.8818359375,7.0751953125,4.5849609375,1.4111328125,-0.6396484375,-3.2763671875,-4.6923828125,-4.0087890625,5.7080078125,16.4990234375,24.5068359375,30.2685546875,34.8583984375,37.9833984375,38.4228515625,35.4931640625,34.8095703125,33.2470703125,32.5146484375,30.9033203125,28.4130859375,25.6787109375,23.3837890625,20.7958984375,17.7197265625,16.3037109375,12.8369140625,10.5419921875,8.4423828125,6.8798828125,4.6826171875,2.2412109375,-0.9814453125,-3.3740234375,-5.2783203125,-7.0849609375,-6.4013671875,3.4130859375,13.1298828125,20.5517578125,26.1669921875,29.9755859375,32.6611328125,32.6611328125,31.1474609375,30.3662109375,29.8779296875,29.0966796875,28.0712890625,26.1669921875,24.1650390625,21.3818359375,19.9169921875,17.4267578125,14.9365234375,12.9833984375,11.3232421875,9.8583984375,8.2470703125,6.5380859375,4.7314453125,1.6552734375,-0.3955078125,-1.9091796875,-2.6416015625,3.5107421875,14.7412109375,23.3837890625,30.0732421875,35.3466796875,39.0576171875,41.0595703125,40.5224609375,39.0087890625,37.7880859375,36.8115234375,36.4697265625,34.9560546875,33.1982421875,29.7314453125,28.0224609375,25.4345703125,23.2373046875,20.8447265625,18.8427734375,16.2060546875,14.6923828125,12.6416015625,10.7373046875,8.0029296875,5.4638671875,3.5595703125,2.4365234375,2.3388671875,11.5185546875,22.1630859375,31.2451171875,36.5185546875,41.6455078125,45.4052734375,45.9423828125,45.2587890625,43.5986328125,41.9873046875,41.7431640625,40.8154296875,38.4716796875,35.7373046875,32.9052734375,30.1708984375,28.3642578125,25.2392578125,22.9443359375,20.2587890625,18.0126953125,15.7666015625,13.8623046875,10.5419921875,7.8564453125,5.2685546875,3.1689453125,1.3134765625,4.6826171875,15.4736328125,24.8974609375,31.3916015625,36.2744140625,40.0830078125,42.4755859375,41.0107421875,39.2529296875,37.3486328125,35.6884765625,34.4677734375,33.0029296875,30.3173828125,27.7783203125,25.2880859375,22.0654296875,20.0146484375,17.1826171875,14.0087890625,12.5439453125,10.3466796875,8.4423828125,6.5869140625,3.6572265625,1.1669921875,-0.6884765625,-3.0810546875,-1.6650390625,6.8798828125,16.8896484375,23.7744140625,29.8779296875,33.0517578125,35.3955078125,34.9072265625,33.1494140625,31.8310546875,31.6845703125,29.8291015625,29.0478515625,26.8017578125,24.8974609375,22.5048828125,20.2099609375,17.7685546875,15.8154296875,13.4228515625,11.4697265625,9.3701171875,7.3681640625,5.5615234375,3.1689453125,0.8740234375,-0.7861328125,-2.1533203125,-0.2978515625,9.4189453125,19.8193359375,27.2900390625,33.6865234375,37.8369140625,41.5478515625,41.4501953125,40.5224609375,39.0087890625,38.9111328125,37.2509765625,36.4697265625,34.6630859375,32.4658203125,30.1708984375,27.2900390625,25.2392578125,22.8466796875,20.6494140625,18.4033203125,16.5478515625,15.1318359375,12.6416015625,10.2490234375,8.1982421875,5.9521484375,3.8037109375,4.7314453125,14.5458984375,24.9462890625,33.3447265625,39.3994140625,43.5498046875,46.8701171875,48.6279296875,46.1865234375,44.2822265625,43.7451171875,43.0126953125,41.2060546875,39.1064453125,36.0791015625,33.0029296875,30.7568359375,27.6806640625,24.3603515625,21.3330078125,19.3310546875,16.9873046875,14.8876953125,11.6650390625,9.2724609375,6.3427734375,4.1943359375,1.9970703125,0.9228515625,8.0517578125,18.5498046875,26.8505859375,32.0263671875,36.2255859375,38.8134765625,39.8388671875,37.2021484375,36.2255859375,34.5166015625,33.0517578125,32.3193359375,30.0244140625,27.6806640625,25.5810546875,23.1396484375,20.4541015625,17.6708984375,15.3271484375,13.4228515625,11.3232421875,9.9072265625,7.0751953125,4.5361328125,2.4853515625,0.1416015625,-1.4208984375,-0.7373046875,7.8564453125,18.8427734375,26.0693359375,31.0009765625,35.3955078125,38.6669921875,38.0322265625,35.7373046875,34.4677734375,34.0771484375,33.1982421875,31.4892578125,30.6591796875,28.4619140625,25.3857421875,22.9931640625,20.4052734375,18.5009765625,15.8642578125,13.6181640625,11.9580078125,9.3701171875,7.8076171875,5.2685546875,2.2900390625,0.2880859375,-1.7138671875,1.9970703125,13.6669921875,23.1884765625,30.5615234375,37.1533203125,41.3525390625,44.1845703125,44.1845703125,42.3779296875,40.5224609375,39.6923828125,38.5693359375,37.1044921875,35.5908203125,33.4423828125,30.8056640625,27.1435546875,24.7509765625,22.3583984375,18.7939453125,16.8408203125,14.1552734375,12.2509765625,9.7607421875,7.1728515625,4.6337890625,1.5576171875,0.2392578125,2.6318359375,13.2763671875,23.1396484375,30.7568359375,36.1279296875,40.0341796875,42.6708984375,42.4755859375,40.1318359375,38.4228515625,37.0556640625,36.2255859375,34.0771484375,31.1962890625,28.3154296875,25.7763671875,22.8466796875,19.5751953125,16.9384765625,14.1552734375,12.0556640625,9.8095703125,7.5634765625,4.6826171875,1.8017578125,-0.9326171875,-3.3251953125,-5.1806640625,-3.0322265625,7.9541015625,17.6220703125,24.7021484375,29.1943359375,32.2216796875,33.6376953125,31.6357421875,30.3662109375,30.1708984375,28.6572265625,27.4853515625,25.9228515625,24.2138671875,21.4794921875,19.8193359375,16.2548828125,13.8623046875,11.9091796875,10.1513671875,7.7587890625,5.9521484375,3.7548828125,1.4111328125,-0.7861328125,-3.7646484375,-4.9853515625,-6.0107421875,-0.1513671875,11.2744140625,21.1376953125,27.1923828125,31.4404296875,35.2001953125,37.7392578125,35.6884765625,34.2724609375,33.1005859375,32.2705078125,31.4892578125,29.1943359375,26.7041015625,24.5068359375,21.9677734375,19.2333984375,16.3525390625,13.8623046875,10.8837890625,8.9306640625,6.8310546875,4.7802734375,1.7529296875,-0.7373046875,-3.2275390625,-5.4736328125,-6.7431640625,-1.9091796875,10.2001953125,19.6728515625,26.8017578125,32.2705078125,36.0791015625,38.3251953125,37.4951171875,35.8837890625,34.4189453125,33.4912109375,32.6123046875,30.6103515625,28.3154296875,25.1904296875,22.7490234375,19.9658203125,17.2802734375,14.3505859375,11.1279296875,9.3701171875,6.8310546875,4.0966796875,1.8505859375,-1.0791015625,-3.9111328125,-6.7919921875,-8.3056640625,-6.5478515625,4.0966796875,14.2041015625,21.8701171875,27.2900390625,30.2685546875,32.7099609375,31.6357421875,29.9267578125,28.7060546875,27.8759765625,26.8017578125,24.2626953125,21.8701171875,19.1845703125,16.6943359375,13.9111328125,11.3232421875,8.1982421875,6.0009765625,4.0478515625,2.1923828125,-0.3466796875,-2.8369140625,-5.2294921875,-8.3056640625,-10.4052734375,-11.9677734375,-11.2841796875,-1.4697265625,9.0283203125,16.6943359375,22.4072265625,25.5322265625,27.8759765625,27.5341796875,25.8740234375,25.2392578125,24.5068359375,23.3349609375,22.5048828125,20.2099609375,17.5244140625,15.4248046875,12.5439453125,10.6884765625,8.6865234375,6.0009765625,4.2919921875,2.3876953125,0.2392578125,-1.5673828125,-4.2041015625,-6.6943359375,-8.8427734375,-9.8193359375,-9.6728515625,1.1181640625,11.7626953125,20.5029296875,25.6298828125,30.5126953125,33.4423828125,34.6142578125,32.1728515625,31.8310546875,30.9521484375,29.8779296875,28.4130859375,27.0458984375,24.0673828125,21.3818359375,19.4287109375,16.3037109375,14.7412109375,11.9091796875,8.5888671875,8.2470703125,5.2685546875,3.6083984375,0.5322265625,-1.7138671875,-4.9365234375,-5.9619140625,-6.6455078125,1.1669921875,11.5185546875,20.6982421875,27.0458984375,31.6845703125,34.9560546875,36.5185546875,35.5908203125,34.0771484375,32.6611328125,31.6357421875,30.8544921875,28.2177734375,26.3623046875,24.5556640625,20.8447265625,17.8662109375,15.3759765625,12.5927734375,10.1513671875,8.1494140625,6.1474609375,3.8525390625,1.0205078125,-2.3486328125,-4.3994140625,-6.3525390625,-8.3056640625,-4.2041015625,6.8798828125,15.5712890625,22.3095703125,27.1435546875,29.5361328125,32.1728515625,30.6103515625,28.3642578125,27.8271484375,26.2158203125,25.5810546875,23.1396484375,21.3330078125,18.6962890625,16.4013671875,12.9345703125,10.5419921875,8.5888671875,5.8056640625,3.6572265625,1.9970703125,-0.2490234375,-3.7646484375,-5.0830078125,-8.4033203125,-9.5751953125,-11.5283203125,-8.4033203125,1.6552734375,11.5673828125,17.7197265625,21.9189453125,25.2880859375,27.0458984375,25.7763671875,24.6533203125,24.1162109375,22.8955078125,22.1142578125,20.3564453125,18.2568359375,16.5478515625,13.9111328125,10.9326171875,9.3212890625,6.9287109375,4.6826171875,2.5830078125,0.8740234375,-0.4443359375,-3.2763671875,-5.4736328125,-7.5732421875,-9.4287109375,-10.2587890625,-7.6220703125,3.4130859375,12.8857421875,20.6005859375,26.0693359375,29.4384765625,32.3193359375,31.7333984375,30.6103515625,29.2919921875,29.0478515625,27.7294921875,25.8251953125,24.1650390625,21.5771484375,19.0869140625,16.1572265625,13.4716796875,11.6162109375,8.9794921875,6.6845703125,5.3173828125,2.8271484375,0.0927734375,-1.9580078125,-4.8388671875,-7.1337890625,-8.5986328125,-7.2802734375,3.1689453125,13.3251953125,21.6259765625,26.8017578125,31.9287109375,34.8095703125,36.1279296875,33.2958984375,32.2216796875,31.1962890625,29.5849609375,27.6806640625,26.0693359375,24.5068359375,20.7958984375,18.1591796875,15.2294921875,12.4462890625,9.0283203125,7.7099609375,5.6591796875,2.8271484375,1.0205078125,-2.5927734375,-4.8876953125,-7.1337890625,-9.0380859375,-9.1845703125,-0.7373046875,9.7607421875,17.7197265625,23.2861328125,28.3642578125,31.2451171875,32.5634765625,29.8779296875,28.1689453125,27.3388671875,25.2392578125,24.1650390625,21.7724609375,19.5263671875,16.4501953125,13.5205078125,10.7373046875,8.1494140625,5.0732421875,2.9248046875,0.2392578125,-1.5673828125,-3.7158203125,-7.0849609375,-9.8193359375,-12.6513671875,-14.5068359375,-15.9228515625,-10.8447265625,0.1416015625,9.1748046875,15.0341796875,19.4775390625,22.4072265625,23.3349609375,21.2841796875,20.1123046875,19.8681640625,18.1591796875,17.0361328125,15.3271484375,13.7158203125,10.7373046875,8.1982421875,5.7568359375,3.5107421875,1.0205078125,-1.1279296875,-2.2509765625,-4.0087890625,-6.4990234375,-8.3056640625,-11.1865234375,-13.4326171875,-14.4580078125,-14.5068359375,-7.0849609375,4.0478515625,12.0556640625,18.6474609375,23.0419921875,26.5576171875,27.5830078125,26.0205078125,24.7998046875,23.8720703125,23.0419921875,21.8701171875,20.0634765625,18.4033203125,16.2060546875,13.7158203125,11.3232421875,8.9306640625,6.2451171875,4.3408203125,2.6318359375,0.9228515625,-0.9326171875,-4.3505859375,-6.5478515625,-8.8916015625,-10.5029296875,-9.8681640625,-0.3955078125,11.0302734375,19.9169921875,25.9228515625,30.5615234375,34.2236328125,35.5908203125,33.5888671875,32.5146484375,31.3427734375,29.7314453125,28.6083984375,26.5087890625,24.5068359375,21.7236328125,19.0380859375,16.1572265625,13.9599609375,10.4443359375,9.0771484375,6.9775390625,5.2197265625,2.3388671875,-0.2001953125,-2.2509765625,-5.4736328125,-6.3525390625,-7.1826171875,1.8017578125,12.1533203125,20.4541015625,25.9716796875,30.6103515625,34.7119140625,35.5419921875,33.5888671875,32.2216796875,30.1708984375,29.8779296875,27.5830078125,25.7275390625,23.3837890625,20.3564453125,17.5732421875,14.2529296875,11.2744140625,9.3701171875,6.6357421875,4.5361328125,2.7294921875,0.1416015625,-2.8857421875,-6.3525390625,-7.9150390625,-10.3564453125,-11.9677734375,-3.9111328125,6.6357421875,14.5458984375,20.8447265625,24.6533203125,26.8994140625,27.5341796875,26.1181640625,24.4580078125,23.8232421875,22.7490234375,21.5283203125,19.4775390625,17.6220703125,14.7900390625,12.2509765625,10.2490234375,7.6123046875,5.9033203125,4.0478515625,1.8994140625,0.4833984375,-3.0322265625,-4.3017578125,-7.0849609375,-8.9404296875,-9.5751953125,-8.6474609375,2.7294921875,12.3974609375,19.7705078125,25.4345703125,28.9501953125,32.4658203125,32.6611328125,30.5615234375,29.6826171875,29.1455078125,27.9736328125,25.6298828125,24.1162109375,22.7001953125,19.6728515625,17.3779296875,14.9853515625,12.6416015625,10.1025390625,7.9541015625,6.6357421875,4.1943359375,1.2158203125,-1.5673828125,-2.7392578125,-5.7177734375,-6.5966796875,-1.8115234375,10.4443359375,19.2333984375,27.2900390625,32.6123046875,36.9580078125,40.2783203125,39.3017578125,37.8369140625,36.4697265625,35.3955078125,34.9072265625,32.9541015625,30.8544921875,28.4130859375,25.7275390625,22.8955078125,20.4052734375,17.4267578125,14.9853515625,13.0810546875,11.2255859375,8.5400390625,5.6103515625,2.7294921875,0.1416015625,-1.2255859375,-2.3486328125,3.6572265625,14.2529296875,24.0185546875,29.9267578125,34.6630859375,37.8369140625,39.1064453125,37.2998046875,35.6884765625,35.1025390625,33.4912109375,31.8310546875,29.0966796875,26.4111328125,23.8720703125,20.7470703125,17.7197265625,15.3271484375,12.2998046875,10.6884765625,8.3935546875,6.2451171875,2.7294921875,-0.2490234375,-2.8857421875,-4.8876953125,-7.1826171875,-7.6708984375,0.8740234375,10.3955078125,17.7197265625,23.7744140625,27.2412109375,29.0478515625,28.5107421875,25.9716796875,25.1904296875,24.7021484375,22.4560546875,21.9189453125,19.5263671875,17.2802734375,14.0576171875,12.0556640625,9.6142578125,7.8564453125,5.5615234375,3.7060546875,1.7041015625,-0.4931640625,-2.7392578125,-5.2783203125,-7.4267578125,-9.1357421875,-10.0634765625,-3.0810546875,8.2958984375,16.6455078125,23.6767578125,27.8759765625,31.0498046875,32.2216796875,30.0244140625,28.3154296875,27.8271484375,26.7041015625,25.9228515625,24.1650390625,21.1865234375,18.8916015625,16.5966796875,14.2041015625,11.7138671875,9.1259765625,7.5634765625,6.0009765625,3.6572265625,0.6298828125,-2.2021484375,-4.6435546875,-6.6943359375,-7.9638671875,-4.1064453125,7.4658203125,17.4755859375,24.7998046875,30.0244140625,34.3212890625,37.6904296875,37.3486328125,35.2001953125,34.4189453125,33.4423828125,32.0263671875,30.3173828125,27.8271484375,25.7763671875,23.0908203125,20.4541015625,17.6220703125,14.9853515625,13.1298828125,10.6396484375,8.4423828125,5.3662109375,2.9736328125,0.4345703125,-1.3232421875,-3.0322265625,-3.4228515625,5.6591796875,15.7177734375,24.2138671875,30.0732421875,34.2236328125,37.7880859375,39.3505859375,37.2021484375,35.2978515625,34.3212890625,32.5634765625,30.7080078125,28.1201171875,25.3369140625,22.2607421875,19.6728515625,17.1337890625,14.2529296875,11.1767578125,9.3701171875,7.3193359375,4.1943359375,1.7529296875,-1.2255859375,-3.1298828125,-4.8876953125,-7.1337890625,-2.5439453125,7.4169921875,16.5966796875,22.2607421875,26.8017578125,29.8291015625,31.2451171875,29.2431640625,27.1923828125,26.4111328125,24.6533203125,24.5556640625,21.8701171875,19.2333984375,17.0849609375,14.4482421875,12.5927734375,9.7607421875,7.4169921875,5.5615234375,3.8037109375,1.4599609375,-0.6396484375,-3.3251953125,-5.5224609375,-7.1337890625,-8.5986328125,-3.6181640625,7.5146484375,16.6455078125,22.9931640625,28.5595703125,31.6357421875,33.2470703125,31.8798828125,30.3173828125,29.2919921875,28.6083984375,27.8759765625,24.6533203125,23.6767578125,20.6005859375,18.7451171875,16.2060546875,14.2041015625,11.3232421875,10.4443359375,8.3447265625,5.7080078125,3.8037109375,0.5810546875,-1.5185546875,-3.4228515625,-5.4736328125,-2.8857421875,8.1494140625,19.2333984375,26.5576171875,32.8564453125,37.4951171875,40.6689453125,41.1083984375,38.8134765625,37.4951171875,36.1279296875,34.3212890625,33.1005859375,30.6591796875,28.2666015625,25.1904296875,22.7490234375,19.6240234375,17.5732421875,14.3017578125,11.7626953125,9.6630859375,7.5146484375,4.0966796875,1.5576171875,-1.5185546875,-2.9345703125,-4.0576171875,3.5595703125,12.9833984375,22.4072265625,28.6083984375,34.0283203125,37.1044921875,38.6669921875,36.0791015625,33.8330078125,32.0751953125,31.0498046875,28.8037109375,26.4599609375,23.1396484375,20.3564453125,16.9384765625,13.6669921875,11.2255859375,7.6611328125,5.4150390625,2.7783203125,-0.2001953125,-2.9833984375,-6.1083984375,-8.8916015625,-10.7958984375,-12.7001953125,-9.3798828125,0.7763671875,9.9560546875,16.6455078125,21.0888671875,24.6533203125,26.2646484375,24.2626953125,22.7978515625,21.7236328125,20.1123046875,18.7451171875,16.7919921875,14.9853515625,12.0556640625,9.8095703125,7.1728515625,4.9755859375,1.9970703125,0.2392578125,-1.5673828125,-3.7158203125,-6.1572265625,-8.6962890625,-11.7236328125,-13.3837890625,-14.9462890625,-13.1884765625,-2.3974609375,7.7587890625,15.9619140625,21.4306640625,25.2880859375,28.8525390625,28.3642578125,25.6787109375,24.7021484375,23.2861328125,21.9677734375,20.4052734375,18.9892578125,15.6201171875,13.5205078125,10.3466796875,7.7099609375,5.3662109375,1.9482421875,1.2158203125,-1.3232421875,-3.8134765625,-7.3291015625,-9.9169921875,-12.6513671875,-13.8232421875,-15.3369140625,-7.9150390625,4.4384765625,14.3017578125,20.5517578125,25.8251953125,29.8291015625,32.5146484375,30.3662109375,28.5107421875,27.4365234375,26.9970703125,25.4345703125,21.9677734375,20.5517578125,17.8173828125,15.0341796875,12.5439453125,9.0771484375,6.8798828125,4.1455078125,1.5087890625,-0.4931640625,-3.5205078125,-5.9619140625,-8.5986328125,-11.3818359375,-14.0185546875,-14.2626953125,-5.6201171875,4.8779296875,13.9599609375,19.9658203125,24.6533203125,27.9736328125,28.8037109375,26.3623046875,24.7021484375,23.3349609375,22.2607421875,20.6494140625,18.0126953125,15.6201171875,12.3974609375,9.2236328125,6.4892578125,3.1689453125,0.1416015625,-2.1044921875,-4.2529296875,-6.4990234375,-9.3798828125,-12.7490234375,-16.1669921875,-17.9736328125,-20.8056640625,-20.2685546875,-10.9912109375,-0.1513671875,7.6123046875,12.2509765625,16.1572265625,18.8916015625,17.4755859375,15.8154296875,14.7900390625,13.4228515625,12.0556640625,10.4443359375,8.4423828125,5.5615234375,2.6806640625,-0.3955078125,-2.3974609375,-4.5947265625,-7.5244140625,-9.0380859375,-10.6005859375,-12.6513671875,-15.3369140625,-17.8271484375,-20.3662109375,-22.4169921875,-22.9052734375,-17.5830078125,-5.9619140625,3.5595703125,10.5419921875,15.8642578125,20.0146484375,22.3583984375,19.3798828125,18.7451171875,18.0126953125,17.3291015625,16.0595703125,14.8388671875,12.6904296875,9.6142578125,7.7587890625,4.9755859375,3.4130859375,0.7275390625,-2.0556640625,-3.7158203125,-5.6689453125,-7.9638671875,-10.6982421875,-13.1396484375,-15.5810546875,-17.0947265625,-17.1923828125,-8.2080078125,3.7060546875,12.6416015625,19.4287109375,25.1904296875,28.9501953125,31.0498046875,29.1455078125,28.4130859375,26.9970703125,26.4599609375,25.3857421875,23.2861328125,21.1865234375,18.7451171875,16.8896484375,13.4716796875,10.8837890625,8.2470703125,6.1474609375,4.9267578125,2.1923828125,-0.7861328125,-3.2275390625,-5.4736328125,-8.0615234375,-9.8681640625,-8.3544921875,0.5322265625,11.2255859375,19.6728515625,25.1904296875,29.8779296875,32.8076171875,33.8818359375,30.9521484375,30.5615234375,28.7060546875,27.4853515625,25.2392578125,23.6767578125,20.6494140625,18.1103515625,15.3271484375,12.6904296875,9.7119140625,7.3193359375,4.7314453125,2.5341796875,-0.2001953125,-3.0322265625,-5.6201171875,-8.4521484375,-10.5517578125,-12.1142578125,-8.1103515625,2.6806640625,10.8837890625,17.8173828125,22.0166015625,25.8251953125,27.2412109375,26.0205078125,24.8486328125,24.0185546875,22.7490234375,22.2119140625,20.6005859375,18.3544921875,16.3525390625,13.3251953125,11.1767578125,8.6865234375,6.8798828125,4.6826171875,3.0712890625,1.2158203125,-1.2255859375,-3.8134765625,-6.8408203125,-8.3544921875,-9.8681640625,-8.8427734375,1.4599609375,11.6650390625,19.2333984375,25.3857421875,30.0244140625,32.9541015625,32.8564453125,29.9755859375,29.3896484375,28.2177734375,27.0947265625,25.5810546875,23.6767578125,21.1865234375,18.2568359375,15.1806640625,13.2763671875,10.2978515625,8.3447265625,5.8056640625,4.5361328125,2.0947265625,-0.9326171875,-3.5693359375,-6.0595703125,-8.0615234375,-9.4775390625,-5.6201171875,4.6337890625,14.8388671875,22.2119140625,27.1923828125,31.4404296875,33.9306640625,33.1005859375,31.2451171875,29.1455078125,28.6572265625,26.8505859375,24.7021484375,21.6748046875,19.0380859375,15.6201171875,12.9833984375,9.3212890625,7.0751953125,3.8525390625,1.8994140625,-0.6396484375,-3.3740234375,-6.0595703125,-9.2822265625,-12.2119140625,-14.7998046875,-16.2158203125,-10.6494140625,-0.1513671875,8.6376953125,14.2529296875,18.6474609375,20.8935546875,21.7236328125,18.9404296875,17.4267578125,16.2060546875,15.4248046875,13.1298828125,11.8603515625,8.8330078125,6.8310546875,3.4130859375,1.3134765625,-1.5185546875,-4.3505859375,-6.0595703125,-7.5244140625,-10.6494140625,-12.3583984375,-15.7763671875,-17.3876953125,-19.3896484375,-20.4638671875,-17.3388671875,-6.3525390625,2.6806640625,9.3701171875,14.6435546875,18.5498046875,19.9169921875,17.9150390625,16.4990234375,15.5224609375,14.5458984375,13.6669921875,12.0068359375,9.5654296875,6.2939453125,3.6572265625,1.3134765625,-1.2744140625,-3.7158203125,-6.0595703125,-8.2080078125,-9.9658203125,-13.6279296875,-15.8740234375,-18.7548828125,-20.9521484375,-22.6611328125,-22.9052734375,-15.2392578125,-3.6669921875,5.1708984375,12.0068359375,16.9873046875,20.2587890625,22.4560546875,20.8447265625,18.7939453125,18.2080078125,16.9384765625,15.8642578125,13.8134765625,11.9580078125,8.9794921875,6.0498046875,3.3154296875,1.1669921875,-1.5185546875,-3.9111328125,-6.1083984375,-8.6962890625,-11.5771484375,-14.0185546875,-17.1435546875,-19.3896484375,-21.2939453125,-22.2216796875,-13.6279296875,-3.2763671875,5.2685546875,11.3720703125,15.7666015625,18.8427734375,19.7216796875,17.5244140625,16.3037109375,15.2294921875,14.1064453125,11.9580078125,10.4443359375,7.4658203125,4.5849609375,1.6552734375,-0.9326171875,-3.3740234375,-6.5478515625,-8.3544921875,-10.9423828125,-12.9931640625,-15.5322265625,-19.2919921875,-21.4404296875,-23.3935546875,-25.5908203125,-24.1748046875,-15.8251953125,-5.5712890625,1.8994140625,7.5634765625,11.2744140625,13.2275390625,12.2998046875,10.9326171875,9.0771484375,8.2470703125,8.1494140625,5.9521484375,4.2431640625,2.4853515625,-0.2978515625,-2.6416015625,-5.7177734375,-7.1337890625,-9.2333984375,-11.1865234375,-13.1396484375,-14.9951171875,-17.4853515625,-19.9755859375,-21.9287109375,-24.3212890625,-25.5419921875,-20.1708984375,-9.5263671875,0.1416015625,7.5146484375,12.5927734375,16.9873046875,19.0869140625,18.3056640625,16.4990234375,15.6689453125,15.1318359375,13.6669921875,12.2509765625,9.9560546875,8.2470703125,5.5615234375,3.0712890625,0.4833984375,-1.9580078125,-3.9599609375,-6.3037109375,-8.5986328125,-10.6982421875,-13.2373046875,-15.3857421875,-18.1689453125,-19.7314453125,-20.5615234375,-14.5556640625,-2.9833984375,6.0498046875,12.6904296875,18.3056640625,22.6025390625,25.1904296875,23.2861328125,21.3330078125,20.3564453125,19.7705078125,18.5498046875,17.0361328125,14.6435546875,11.9091796875,9.4189453125,6.2939453125,3.9013671875,0.5810546875,-1.3232421875,-3.7646484375,-6.4501953125,-8.8916015625,-12.0166015625,-14.5068359375,-17.3876953125,-19.1943359375,-20.2197265625,-13.9697265625,-3.4228515625,6.4892578125,12.1533203125,16.8896484375,20.2587890625,22.2607421875,19.5263671875,17.6220703125,16.5966796875,15.4736328125,13.5205078125,11.8603515625,9.2724609375,5.7080078125,2.9736328125,1.0693359375,-2.2509765625,-4.4970703125,-7.3779296875,-9.1845703125,-11.2841796875,-13.6767578125,-15.6787109375,-18.5107421875,-20.7568359375,-21.9775390625,-23.1982421875,-15.4345703125,-4.0087890625,2.7783203125,9.2724609375,13.0810546875,16.1572265625,16.9384765625,14.5947265625,13.7646484375,12.6416015625,12.4951171875,10.7373046875,9.4677734375,6.4404296875,5.0244140625,2.5341796875,-0.2001953125,-2.2998046875,-4.2529296875,-6.2060546875,-7.9150390625,-9.7705078125,-12.0654296875,-15.1416015625,-17.8759765625,-19.0966796875,-20.5126953125,-18.9501953125,-9.6240234375,1.5576171875,10.2978515625,16.3525390625,20.0634765625,24.0185546875,23.8720703125,21.5771484375,21.0400390625,20.3076171875,19.4775390625,17.9638671875,16.1083984375,13.7158203125,11.3232421875,8.1494140625,5.9033203125,3.6083984375,0.9716796875,-0.6396484375,-2.5439453125,-4.7412109375,-7.9150390625,-11.2353515625,-12.7490234375,-14.9951171875,-16.6552734375,-13.4326171875,-2.6904296875,7.4169921875,15.2294921875,19.9169921875,24.3603515625,27.4853515625,26.5576171875,25.0439453125,24.8974609375,23.5302734375,21.6259765625,20.4541015625,18.0615234375,15.7666015625,12.7880859375,10.2490234375,7.2216796875,4.3896484375,1.6064453125,-0.6396484375,-2.7880859375,-5.2294921875,-7.7685546875,-10.7958984375,-13.8232421875,-16.7041015625,-18.2177734375,-15.3369140625,-4.7900390625,3.9990234375,11.9580078125,17.0361328125,19.8193359375,22.3583984375,21.1376953125,19.4775390625,17.6220703125,16.6455078125,15.4736328125,13.3740234375,10.8349609375,7.9541015625,5.8056640625,2.6806640625,-0.0048828125,-2.2998046875,-4.7412109375,-7.0361328125,-9.4287109375,-11.7236328125,-13.9208984375,-16.6064453125,-19.4384765625,-21.4404296875,-22.7587890625,-18.9990234375,-8.5009765625,0.1904296875,7.2216796875,12.6904296875,15.3271484375,16.5478515625,14.8876953125,13.0322265625,12.2509765625,12.1533203125,10.7861328125,9.2724609375,7.3681640625,5.4150390625,2.5830078125,-0.1025390625,-1.8603515625,-3.9111328125,-5.8642578125,-7.7685546875,-9.1357421875,-11.8212890625,-14.1162109375,-16.5576171875,-18.9013671875,-19.6337890625,-18.6083984375,-9.5263671875,1.8017578125,9.1748046875,15.6201171875,20.5029296875,23.2861328125,24.1162109375,21.8701171875,21.8212890625,20.1611328125,20.5029296875,18.4521484375,16.0107421875,13.4228515625,11.4208984375,9.4189453125,6.2939453125,4.2919921875,1.6552734375,0.0927734375,-1.9091796875,-4.3505859375,-6.6455078125,-9.6240234375,-11.8212890625,-14.1162109375,-16.0693359375,-11.9677734375,-0.3955078125,8.6865234375,16.4990234375,21.7236328125,26.3623046875,29.2919921875,28.5595703125,26.3623046875,25.9716796875,24.6533203125,23.5302734375,21.3330078125,19.4287109375,17.0849609375,14.3994140625,11.4697265625,9.0283203125,6.6357421875,3.7060546875,1.4599609375,-0.6396484375,-3.0810546875,-6.4990234375,-9.3310546875,-11.4794921875,-13.8720703125,-15.4833984375,-10.1123046875,0.8251953125,9.8583984375,16.6943359375,21.5771484375,24.3115234375,25.7275390625,23.8720703125,22.2119140625,20.7958984375,19.8193359375,18.6474609375,16.4990234375,14.3017578125,11.1279296875,8.9794921875,5.8544921875,3.2666015625,0.1904296875,-1.2255859375,-3.0322265625,-5.0341796875,-7.9638671875,-10.2587890625,-12.3095703125,-13.8720703125,-16.1181640625,-14.3603515625,-5.6201171875,4.1455078125,11.7138671875,17.0361328125,20.9423828125,22.8466796875,22.0166015625,20.7958984375,19.8193359375,18.9892578125,17.8173828125,17.0849609375,14.3017578125,12.4462890625,10.1025390625,7.8564453125,5.7080078125,3.6572265625,1.5576171875,0.2880859375,-1.7626953125,-3.3740234375,-6.4990234375,-8.7451171875,-11.0888671875,-12.3095703125,-11.8212890625,-2.4951171875,7.8564453125,16.2060546875,22.2119140625,27.6318359375,30.6103515625,31.3916015625,29.1943359375,28.4130859375,26.9970703125,26.3134765625,25.0439453125,22.8466796875,20.6982421875,17.6708984375,15.2783203125,12.5439453125,10.0537109375,8.0029296875,6.0009765625,4.0478515625,2.1923828125,-1.0302734375,-3.0322265625,-5.7666015625,-7.9150390625,-8.2080078125,-5.2294921875,5.8056640625,15.4736328125,23.2861328125,28.8037109375,33.4912109375,35.3955078125,34.6630859375,32.6611328125,31.4404296875,30.2685546875,29.0478515625,27.0947265625,24.9462890625,21.4306640625,18.6474609375,15.9619140625,12.9833984375,10.0048828125,7.4658203125,5.3662109375,2.6806640625,0.0439453125,-3.1298828125,-5.6201171875,-9.1845703125,-10.6494140625,-12.0166015625,-7.1337890625,4.2919921875,12.9833984375,19.3310546875,24.2626953125,26.8994140625,28.2177734375,25.9716796875,24.5556640625,22.6513671875,21.7236328125,19.9658203125,17.7197265625,14.6435546875,12.1044921875,9.6142578125,6.2939453125,3.8525390625,1.1181640625,-1.2255859375,-3.1787109375,-4.7900390625,-7.6220703125,-10.2587890625,-13.1884765625,-15.1416015625,-17.0458984375,-15.8251953125,-6.2548828125,3.8037109375,11.2255859375,16.7431640625,20.5517578125,22.7490234375,21.7236328125,20.5517578125,19.2822265625,18.5986328125,17.6220703125,16.0107421875,14.6435546875,11.9091796875,9.5166015625,7.2216796875,4.6826171875,2.5341796875,0.8251953125,-0.4443359375,-3.0810546875,-5.5224609375,-7.7197265625,-9.8193359375,-12.8955078125,-14.0185546875,-14.8974609375,-8.0615234375,3.2666015625,12.4951171875,19.5751953125,25.0927734375,28.7548828125,30.1708984375,28.5107421875,27.0947265625,26.4599609375,25.7275390625,24.0673828125,22.6025390625,20.4052734375,17.1826171875,15.5224609375,12.7880859375,9.8095703125,7.2705078125,5.6591796875,3.4130859375,1.0205078125,-1.0791015625,-3.8134765625,-6.6943359375,-9.1357421875,-10.4541015625,-11.0400390625,-4.3994140625,6.5380859375,16.2060546875,22.5537109375,27.6318359375,31.0986328125,33.0029296875,31.5380859375,29.1455078125,27.9736328125,27.8759765625,26.1669921875,24.1162109375,21.5283203125,19.0869140625,15.0341796875,12.9345703125,10.2001953125,7.4658203125,5.0244140625,2.2412109375,-0.0048828125,-2.9345703125,-4.9853515625,-8.5498046875,-11.1865234375,-13.4814453125,-14.8486328125,-10.2587890625,0.3857421875,9.8583984375,16.6455078125,20.9423828125,24.5068359375,25.9228515625,23.1396484375,21.5283203125,21.1865234375,19.7216796875,17.7685546875,16.3037109375,13.6181640625,11.2255859375,7.5146484375,5.7080078125,2.1923828125,-0.2490234375,-2.9833984375,-4.5947265625,-5.7666015625,-8.7939453125,-11.1865234375,-13.7255859375,-15.7763671875,-17.4365234375,-18.4619140625,-11.8212890625,-1.4697265625,7.6123046875,14.2529296875,18.2568359375,21.3330078125,22.4560546875,20.6494140625,19.0869140625,18.5009765625,17.0849609375,15.5224609375,13.4228515625,12.1533203125,9.9072265625,6.7822265625,4.5849609375,2.4853515625,0.6298828125,-2.1533203125,-3.3251953125,-6.0107421875,-7.8662109375,-10.3564453125,-12.4560546875,-14.9462890625,-16.6552734375,-15.8251953125,-6.5478515625,4.5849609375,12.9345703125,20.1123046875,24.5556640625,28.2177734375,28.7060546875,27.1435546875,26.7041015625,25.3857421875,24.4091796875,23.3349609375,21.6259765625,19.6240234375,16.7431640625,14.2529296875,10.9326171875,9.7119140625,6.3916015625,4.3408203125,1.8994140625,0.3369140625,-2.5439453125,-5.4248046875,-7.7685546875,-10.3564453125,-12.0166015625,-12.0166015625,-3.8134765625,7.4658203125,16.2548828125,22.6025390625,27.2900390625,31.6357421875,32.2216796875,30.6103515625,29.4873046875,27.7783203125,26.6552734375,25.8740234375,23.4326171875,20.8447265625,17.6708984375,14.8876953125,12.1533203125,9.0771484375,5.9521484375,4.4384765625,1.7041015625,-0.0048828125,-3.1298828125,-6.4501953125,-9.4287109375,-11.6748046875,-14.0673828125,-14.9462890625,-6.3037109375,4.3408203125,11.8115234375,17.8173828125,21.6259765625,23.8720703125,24.3115234375,21.5771484375,20.4052734375,19.1357421875,17.9150390625,15.9619140625,14.6435546875,12.0068359375,8.8330078125,6.0009765625,3.4619140625,0.6298828125,-1.1767578125,-4.0576171875,-6.2060546875,-7.9150390625,-10.8447265625,-13.4326171875,-15.5810546875,-16.8017578125,-18.4130859375,-16.2158203125,-5.8154296875,3.9990234375,11.3720703125,16.3037109375,20.8447265625,22.7490234375,21.1865234375,20.0146484375,19.2822265625,18.3544921875,17.1337890625,15.5224609375,13.6181640625,11.4208984375,8.6376953125,6.0986328125,3.6572265625,1.6064453125,-0.5908203125,-2.2998046875,-4.3505859375,-6.7919921875,-8.8916015625,-11.4306640625,-14.6044921875,-16.4599609375,-18.0224609375,-12.2607421875,-0.7861328125,8.9306640625,16.6943359375,21.7724609375,25.6298828125,28.7060546875,26.7041015625,24.9951171875,24.4580078125,23.5791015625,22.2119140625,20.5517578125,18.4521484375,15.3759765625,12.8369140625,10.2490234375,7.9541015625,5.4638671875,2.6806640625,0.4345703125,-1.2744140625,-3.7158203125,-6.4501953125,-8.9892578125,-11.3818359375,-12.9443359375,-14.8974609375,-10.9423828125,0.6298828125,10.0537109375,17.9150390625,23.2861328125,26.8994140625,30.6103515625,28.6572265625,27.0947265625,26.3623046875,24.5068359375,23.2861328125,21.7724609375,19.1357421875,16.2060546875,13.5693359375,10.1513671875,7.2216796875,4.8779296875,1.9482421875,-0.5419921875,-2.7880859375,-5.7666015625,-8.3544921875,-10.8447265625,-13.6279296875,-15.7763671875,-17.8271484375,-15.9716796875,-5.7177734375,4.1455078125,10.9814453125,16.4013671875,20.1611328125,21.6748046875,20.0634765625,18.4521484375,17.6220703125,15.9619140625,14.8876953125,12.6904296875,10.2978515625,7.9541015625,4.8779296875,2.0947265625,-0.4443359375,-3.1787109375,-5.6201171875,-7.2314453125,-9.4775390625,-11.5771484375,-13.7744140625,-16.0693359375,-19.0478515625,-20.6591796875,-22.0263671875,-17.7783203125,-6.7919921875,2.9248046875,9.9560546875,15.0341796875,18.4033203125,20.1611328125,18.0615234375,16.6943359375,16.2060546875,15.7177734375,13.6669921875,11.9091796875,9.7119140625,8.1005859375,4.8291015625,3.4619140625,0.1904296875,-2.2021484375,-3.8134765625,-6.0107421875,-8.1103515625,-10.4052734375,-13.0419921875,-15.4345703125,-18.2177734375,-20.2685546875,-21.9287109375,-15.4833984375,-3.7646484375,6.5380859375,14.0087890625,18.7939453125,22.7978515625,24.8486328125,22.9931640625,22.0166015625,20.6494140625,20.6494140625,18.7939453125,16.5966796875,14.4970703125,12.1533203125,9.3701171875,6.6845703125,4.3896484375,1.9482421875,-0.9326171875,-2.9345703125,-5.2783203125,-7.5732421875,-10.4052734375,-12.7978515625,-15.4833984375,-17.2412109375,-18.9501953125,-15.1904296875,-4.2041015625,6.1962890625,13.0810546875,19.1845703125,22.7001953125,25.5322265625,24.0673828125,21.9189453125,20.5517578125,19.7705078125,18.2080078125,15.7666015625,13.2275390625,10.3955078125,7.3193359375,4.1455078125,1.9482421875,-0.7373046875,-3.0322265625,-5.5224609375,-7.2802734375,-10.2099609375,-13.0908203125,-16.3623046875,-18.8525390625,-20.5126953125,-22.3681640625,-20.3662109375,-10.4541015625,0.4345703125,7.9541015625,12.6416015625,15.4736328125,17.4267578125,16.0595703125,14.3505859375,13.5693359375,13.3740234375,11.8603515625,10.1025390625,7.8564453125,5.7080078125,3.4130859375,0.8740234375,-1.9580078125,-4.0087890625,-5.4248046875,-6.8896484375,-9.2822265625,-11.3330078125,-13.6279296875,-15.9228515625,-17.5830078125,-19.8291015625,-19.8779296875,-12.3095703125,-0.8837890625,8.0517578125,15.6201171875,20.4052734375,23.4326171875,24.7021484375,23.4326171875,21.8701171875,20.9912109375,20.1123046875,19.0380859375,17.1337890625,14.3505859375,13.0810546875,10.3466796875,7.0751953125,5.4150390625,3.3154296875,0.6787109375,-0.5908203125,-2.7880859375,-5.3759765625,-7.5732421875,-9.8681640625,-11.9189453125,-13.0908203125,-13.5302734375,-3.7158203125,7.2705078125,16.5478515625,23.3837890625,28.4130859375,32.1240234375,34.4189453125,31.6845703125,31.2939453125,29.7314453125,29.0966796875,27.8759765625,25.7763671875,23.7255859375,20.6982421875,18.8427734375,15.8642578125,13.0810546875,11.0302734375,8.3447265625,6.5380859375,4.1455078125,1.0205078125,-1.5673828125,-4.5947265625,-6.2060546875,-8.3544921875,-7.3779296875,1.8017578125,12.6904296875,20.5029296875,27.1435546875,31.0009765625,34.1259765625,34.1748046875,31.5869140625,30.2685546875,29.0478515625,27.9248046875,25.6298828125,23.0908203125,20.3564453125,17.3779296875,14.0576171875,12.2509765625,9.3212890625,7.3681640625,5.1708984375,3.0712890625,0.7275390625,-1.9580078125,-4.5458984375,-7.0849609375,-8.8916015625,-10.5029296875,-6.8408203125,2.9736328125,12.6416015625,20.1611328125,25.3857421875,28.3642578125,30.1708984375,28.8037109375,26.2158203125,25.3369140625,24.4580078125,23.1396484375,21.5283203125,18.9892578125,17.2314453125,14.3994140625,12.7392578125,9.9072265625,7.7099609375,5.1708984375,3.1689453125,1.7041015625,-1.0791015625,-3.6669921875,-6.4013671875,-8.4033203125,-10.1611328125,-9.7705078125,-1.1279296875,10.5419921875,19.2333984375,25.0439453125,30.0244140625,32.7587890625,34.0283203125,31.0986328125,29.2919921875,28.5595703125,26.9482421875,25.4345703125,23.7744140625,21.7724609375,18.8427734375,15.7177734375,13.6181640625,10.0537109375,8.9794921875,6.0009765625,3.2177734375,1.5087890625,-1.6162109375,-4.3505859375,-7.1337890625,-9.1357421875,-10.4052734375,-10.1123046875,0.9228515625,11.7626953125,19.3798828125,24.9462890625,29.9755859375,32.9052734375,32.3193359375,30.5615234375,29.5849609375,27.5341796875,25.4833984375,24.5068359375,22.0654296875,19.5751953125,15.9619140625,12.6416015625,9.8095703125,7.6611328125,4.5849609375,1.7041015625,-0.2490234375,-3.5693359375,-5.9619140625,-9.6728515625,-13.4814453125,-15.0927734375,-17.1435546875,-15.7763671875,-6.7431640625,4.0966796875,11.8603515625,16.8896484375,21.2841796875,23.2861328125,22.4560546875,20.1123046875,17.9638671875,17.4755859375,15.1318359375,14.1064453125,11.6162109375,8.4912109375,5.1708984375,2.4853515625,-0.5908203125,-2.9833984375,-5.4736328125,-8.5009765625,-10.1611328125,-12.6513671875,-15.0927734375,-18.2666015625,-19.7314453125,-22.6123046875,-24.0283203125,-21.1962890625,-10.0146484375,0.4833984375
