PPG_subj_16,21,F,N,Non-diabetic,105,34.8323,Forehead,0.185546875,0.185546875,0.185546875,0.185546875,0.185546875,0.185546875,91.7822265625,60.6982421875,59.0380859375,58.9404296875,57.4755859375,59.7705078125,60.9423828125,63.5791015625,65.6298828125,66.2158203125,68.1201171875,68.8037109375,68.9013671875,67.5341796875,67.3876953125,66.9970703125,66.9970703125,66.1669921875,66.1181640625,65.5322265625,64.3603515625,63.6279296875,62.7001953125,61.5283203125,61.0400390625,61.6259765625,62.7490234375,64.0673828125,65.6787109375,66.7529296875,67.5830078125,68.4130859375,68.0712890625,68.5595703125,67.8271484375,68.0224609375,66.9482421875,65.9716796875,64.6533203125,64.0185546875,63.0419921875,61.5771484375,60.6982421875,60.2099609375,59.4287109375,58.2080078125,57.1826171875,57.9638671875,60.7470703125,62.9931640625,65.0439453125,68.9013671875,72.1240234375,76.0302734375,80.8642578125,92.0947265625,108.4521484375,120.8544921875,129.8388671875,131.0595703125,128.5205078125,123.9794921875,118.6083984375,111.5283203125,107.0361328125,102.9345703125,100.5908203125,99.5166015625,98.0517578125,96.4892578125,96.0986328125,96.1962890625,97.5634765625,97.6611328125,97.4169921875,96.3427734375,94.8779296875,93.0712890625,92.0458984375,91.1669921875,89.6533203125,88.1396484375,86.1376953125,84.6728515625,82.7197265625,80.2294921875,78.0322265625,75.2001953125,72.3681640625,70.7568359375,68.6083984375,66.7041015625,65.1904296875,65.0927734375,66.0205078125,67.2900390625,67.2412109375,67.5341796875,67.4365234375,66.6064453125,65.4833984375,64.8974609375,63.9208984375,63.8232421875,64.0185546875,62.9443359375,62.0654296875,61.5771484375,60.3564453125,59.1845703125,58.2080078125,57.1337890625,55.2294921875,54.9853515625,54.3505859375,54.7900390625,56.0107421875,57.7197265625,58.0615234375,57.9150390625,57.9638671875,57.1826171875,56.9873046875,57.2314453125,56.3525390625,55.7177734375,56.3037109375,55.5712890625,54.6923828125,54.3505859375,53.3740234375,52.3974609375,51.9580078125,50.4931640625,49.6630859375,49.4677734375,51.0791015625,52.5927734375,54.7900390625,54.7412109375,55.4736328125,55.9619140625,55.6201171875,55.9130859375,55.2294921875,55.1806640625,55.2294921875,54.8876953125,54.8876953125,54.1552734375,53.7158203125,53.0322265625,52.3486328125,51.1279296875,50.7373046875,51.2744140625,52.4951171875,54.4970703125,55.5712890625,57.0849609375,57.4267578125,58.9404296875,58.5986328125,58.4033203125,58.4033203125,58.4521484375,57.9638671875,58.2568359375,57.9638671875,57.4755859375,56.2548828125,55.6689453125,55.7666015625,54.8876953125,54.7412109375,54.8876953125,56.0595703125,58.1103515625,59.2333984375,60.2587890625,61.6259765625,62.1630859375,62.3095703125,61.9677734375,62.3095703125,62.3095703125,62.6513671875,63.2861328125,62.7978515625,62.6513671875,62.0166015625,61.9677734375,60.3564453125,59.7216796875,59.0869140625,58.7939453125,58.0126953125,57.6708984375,58.7939453125,59.8681640625,62.4560546875,63.6279296875,64.7021484375,65.0439453125,66.8505859375,66.8505859375,66.1669921875,66.4111328125,66.6552734375,67.5341796875,66.8994140625,66.6064453125,66.5087890625,65.4345703125,64.8974609375,63.7744140625,62.7001953125,62.1142578125,61.4306640625,61.0888671875,60.1123046875,60.0634765625,58.6962890625,59.2333984375,59.9169921875,61.5771484375,63.5302734375,64.1650390625,64.7021484375,65.7275390625,66.0205078125,66.0693359375,65.8740234375,66.1669921875,66.0693359375,65.9716796875,66.1669921875,65.7275390625,64.8974609375,63.8232421875,61.9189453125,61.6259765625,60.9912109375,59.9169921875,59.4775390625,58.7939453125,58.3544921875,57.7197265625,57.3291015625,57.5732421875,58.8916015625,59.9658203125,61.1376953125,61.9189453125,62.5537109375,62.4072265625,62.6025390625,63.0908203125,63.0908203125,63.0908203125,62.6513671875,63.1884765625,62.4072265625,61.2353515625,60.6005859375,59.9169921875,58.5009765625,58.2080078125,57.3779296875,57.2314453125,56.7431640625,55.0830078125,55.6201171875,56.1572265625,57.5732421875,59.1845703125,60.1123046875,60.9912109375,61.7724609375,62.4560546875,62.6025390625,62.7490234375,62.4072265625,62.9443359375,62.8466796875,63.5302734375,62.8955078125,62.3095703125,60.6982421875,59.9658203125,59.1845703125,58.8916015625,58.1591796875,57.8173828125,56.7919921875,56.6943359375,57.0361328125,58.2080078125,60.1123046875,60.9423828125,62.1630859375,62.9443359375,64.2138671875,64.4091796875,64.5556640625,64.7998046875,63.9208984375,64.2626953125,64.7509765625,64.1650390625,63.8232421875,62.2607421875,61.4794921875,60.2099609375,60.2099609375,59.7216796875,58.6474609375,58.1591796875,57.5732421875,56.9384765625,57.2314453125,58.2080078125,59.3798828125,60.9912109375,62.3583984375,63.6279296875,63.6279296875,64.4580078125,64.9951171875,64.6533203125,64.5556640625,64.8486328125,64.8974609375,65.1416015625,64.8486328125,63.9208984375,62.7001953125,61.8212890625,60.9912109375,59.4775390625,59.6240234375,58.9892578125,58.3544921875,57.9150390625,56.7431640625,55.5712890625,55.8642578125,56.7919921875,57.7197265625,58.8916015625,59.7216796875,60.7958984375,62.2119140625,63.0419921875,63.6279296875,63.8720703125,64.6533203125,64.7021484375,64.7998046875,64.4580078125,63.9208984375,63.8720703125,62.7978515625,61.1376953125,60.9912109375,59.8193359375,60.1123046875,59.7216796875,58.7451171875,58.0615234375,57.8662109375,56.7919921875,56.1572265625,54.9365234375,54.3505859375,54.5947265625,55.7177734375,56.9873046875,58.5009765625,60.1123046875,60.4541015625,61.7724609375,61.5283203125,61.5283203125,62.3095703125,62.0654296875,61.9189453125,61.9189453125,61.2841796875,61.2841796875,60.6494140625,59.6728515625,59.1845703125,58.5009765625,58.2568359375,57.4267578125,56.8896484375,56.3037109375,55.4248046875,54.8388671875,53.9111328125,53.8623046875,54.3994140625,55.3271484375,57.0849609375,57.9150390625,58.6962890625,59.5263671875,59.4287109375,60.4541015625,59.7216796875,59.5751953125,59.8193359375,59.7705078125,60.6494140625,59.7705078125,59.8681640625,58.5986328125,58.0126953125,57.3291015625,56.7919921875,56.7919921875,55.6689453125,55.4248046875,54.3505859375,54.4970703125,55.6689453125,57.4755859375,58.6962890625,59.8681640625,61.0400390625,61.3330078125,62.1630859375,62.7978515625,62.7978515625,62.3583984375,62.5048828125,63.0419921875,62.7978515625,62.9931640625,61.6748046875,60.7958984375,60.7958984375,60.5029296875,60.0146484375,59.2333984375,58.8427734375,59.0380859375,60.0634765625,60.9912109375,63.0908203125,64.3603515625,66.0205078125,66.1669921875,66.9482421875,67.3388671875,67.6318359375,67.8759765625,67.9248046875,67.6318359375,68.6572265625,68.7548828125,68.3642578125,66.6552734375,66.2646484375,66.0693359375,65.4345703125,64.9462890625,64.4580078125,63.6767578125,63.2373046875,63.1884765625,63.8720703125,65.5322265625,66.6064453125,67.9248046875,68.9990234375,70.3173828125,70.5126953125,71.4892578125,71.9287109375,71.6845703125,71.4892578125,71.9775390625,72.3193359375,71.8798828125,71.8798828125,70.8544921875,69.2431640625,68.6083984375,67.9248046875,67.0947265625,66.6552734375,65.5322265625,64.9462890625,64.4580078125,63.8720703125,63.4326171875,61.9677734375,61.3330078125,62.2607421875,63.4814453125,65.3369140625,65.9716796875,67.3388671875,69.4873046875,69.9755859375,70.8056640625,70.9521484375,71.2451171875,71.5380859375,71.5869140625,71.5869140625,71.0498046875,70.4638671875,69.8291015625,68.4130859375,67.7783203125,66.9970703125,67.0458984375,65.8740234375,65.2880859375,64.1162109375,63.5791015625,62.5537109375,62.1630859375,60.7470703125,60.3076171875,61.2841796875,61.5283203125,64.1650390625,65.1416015625,65.8740234375,66.4111328125,67.1923828125,67.6318359375,67.6806640625,68.2666015625,67.7294921875,67.5341796875,68.0712890625,67.9736328125,66.8994140625,66.1669921875,65.4345703125,64.4091796875,64.1650390625,63.4326171875,62.5048828125,62.7001953125,62.2607421875,61.3818359375,60.6005859375,62.2119140625,62.7490234375,64.6533203125,65.1416015625,66.4599609375,68.0224609375,68.6572265625,69.3408203125,69.1943359375,69.6337890625,69.4873046875,69.7802734375,69.2919921875,69.0478515625,68.8037109375,67.8271484375,66.7529296875,65.9716796875,65.1416015625,64.8486328125,63.8232421875,62.9443359375,62.1142578125,61.6748046875,62.3583984375,63.2373046875,64.4091796875,66.1181640625,67.4853515625,68.7548828125,69.6337890625,70.1220703125,70.5126953125,70.1708984375,70.2197265625,70.0732421875,69.9267578125,69.9267578125,69.6826171875,68.9501953125,67.4853515625,66.4599609375,65.8251953125,65.3369140625,64.5068359375,63.8720703125,62.6025390625,62.6513671875,61.0400390625,61.2353515625,59.6728515625,60.2587890625,61.7724609375,62.9443359375,64.3603515625,65.9716796875,66.8505859375,68.3154296875,68.4130859375,68.9990234375,69.5849609375,69.9755859375,69.9267578125,70.0732421875,69.8291015625,70.0732421875,69.3896484375,68.8037109375,67.3388671875,66.5576171875,65.6298828125,65.6298828125,64.9462890625,64.4580078125,63.4326171875,62.4560546875,61.9677734375,61.4306640625,60.6494140625,59.3310546875,58.2080078125,59.0869140625,59.3798828125,61.7236328125,63.0908203125,64.1162109375,65.7275390625,66.7041015625,67.3876953125,68.0712890625,68.6572265625,67.6318359375,68.3154296875,68.1201171875,67.9736328125,67.5830078125,66.5576171875,65.1904296875,64.1650390625,62.9931640625,62.7490234375,62.3095703125,61.9189453125,61.0888671875,59.9658203125,58.9892578125,58.5009765625,57.8173828125,56.4990234375,55.9130859375,56.5966796875,57.3291015625,59.9658203125,60.3564453125,61.8212890625,62.7001953125,62.9931640625,63.0908203125,64.2138671875,64.2626953125,63.9208984375,63.8232421875,63.4814453125,63.8720703125,63.4326171875,62.2607421875,60.8935546875,59.4287109375,59.5263671875,58.5986328125,58.2568359375,57.6220703125,56.9384765625,56.4501953125,54.3994140625,54.4482421875,54.5947265625,54.9853515625,56.5966796875,58.4521484375,59.3310546875,60.0146484375,61.1865234375,62.7490234375,62.9443359375,62.9443359375,62.7490234375,63.1884765625,63.4326171875,63.6767578125,63.4814453125,62.8466796875,62.7001953125,61.8212890625,61.6259765625,61.1376953125,61.0888671875,60.0146484375,59.3310546875,58.3544921875,58.5986328125,59.2333984375,60.2587890625,62.1142578125,63.2861328125,64.4091796875,66.4111328125,66.6064453125,66.9970703125,67.6318359375,67.9248046875,68.1689453125,68.8037109375,68.5595703125,68.5107421875,67.9736328125,67.0458984375,64.8486328125,64.2138671875,63.8720703125,62.8955078125,63.1396484375,61.9189453125,61.4306640625,60.4541015625,60.6494140625,61.5771484375,62.7490234375,64.2626953125,65.3369140625,66.4599609375,66.9482421875,67.6806640625,68.3642578125,68.4619140625,68.9501953125,69.0478515625,68.7548828125,68.9990234375,69.1455078125,68.1201171875,66.7041015625,65.9716796875,64.4091796875,65.1416015625,64.3115234375,63.5302734375,63.4814453125,61.9677734375,61.1865234375,60.5517578125,60.6494140625,61.3330078125,62.7001953125,63.7255859375,65.2880859375,66.2646484375,67.5341796875,68.8525390625,69.2919921875,69.4384765625,69.5361328125,69.5361328125,69.2919921875,68.7060546875,67.8271484375,67.2412109375,66.7529296875,65.4833984375,64.5068359375,63.9697265625,63.8720703125,63.0908203125,61.1865234375,60.9912109375,60.1123046875,58.7939453125,57.7197265625,57.6220703125,58.8427734375,60.1611328125,62.3095703125,62.8955078125,63.7255859375,64.2626953125,65.4345703125,65.5810546875,65.5322265625,65.2392578125,65.3857421875,65.9228515625,65.1416015625,65.1904296875,64.1650390625,62.8466796875,61.6259765625,61.8212890625,60.4052734375,60.7470703125,60.1123046875,59.2333984375,58.0615234375,57.5244140625,58.4521484375,59.0380859375,60.7958984375,62.0654296875,62.4072265625,63.1884765625,64.7509765625,65.3369140625,65.1904296875,65.2392578125,65.5810546875,65.3369140625,65.4345703125,65.1904296875,64.2626953125,64.4091796875,62.6025390625,62.1142578125,61.6259765625,60.8447265625,60.4052734375,59.9169921875,58.3544921875,57.9150390625,58.5498046875,59.5263671875,61.0400390625,62.5537109375,63.8232421875,64.5068359375,65.9228515625,66.4111328125,66.7529296875,67.4365234375,67.3388671875,67.8271484375,67.7294921875,68.3642578125,67.6806640625,66.2646484375,66.0693359375,65.0439453125,64.4580078125,63.3837890625,62.9931640625,62.0166015625,61.9677734375,61.0400390625,59.8681640625,59.7705078125,60.6982421875,61.9189453125,63.2373046875,64.5068359375,66.3134765625,67.2412109375,67.2412109375,67.8759765625,69.1943359375,68.5107421875,68.9990234375,68.8037109375,68.9501953125,68.6572265625,68.1689453125,67.2900390625,65.9228515625,64.6044921875,64.7998046875,64.3603515625,63.2861328125,62.9931640625,61.8701171875,60.6494140625,60.2587890625,59.7705078125,58.4033203125,58.4521484375,59.0869140625,60.8935546875,61.6259765625,63.3837890625,64.8974609375,66.3623046875,67.0458984375,67.9736328125,67.3388671875,68.0224609375,67.2900390625,67.4853515625,66.9970703125,66.8017578125,66.4599609375,65.1904296875,63.9208984375,63.5791015625,62.4072265625,61.6259765625,60.7470703125,60.4541015625,58.7451171875,57.9638671875,57.8662109375,56.7919921875,55.3759765625,55.2783203125,55.6201171875,57.6220703125,58.8916015625,59.7705078125,61.4306640625,61.5771484375,61.8701171875,62.3095703125,62.0166015625,62.7978515625,62.2119140625,62.2607421875,62.2607421875,61.7724609375,61.3818359375,60.6005859375,59.2822265625,58.4033203125,57.9638671875,56.8408203125,56.3037109375,55.7177734375,54.9365234375,53.9111328125,53.8134765625,54.4970703125,55.7177734375,57.0849609375,58.0126953125,58.8427734375,59.1845703125,60.8447265625,60.9423828125,61.0400390625,60.9423828125,60.8447265625,61.3330078125,61.3330078125,61.5283203125,61.4794921875,60.0146484375,59.5263671875,58.6474609375,58.0615234375,57.5732421875,56.5966796875,56.1572265625,55.1806640625,54.5947265625,54.5458984375,55.7666015625,57.4755859375,58.6962890625,59.9169921875,61.2353515625,62.1142578125,62.7490234375,63.4326171875,63.4814453125,63.9208984375,63.9208984375,63.8720703125,63.8720703125,64.2138671875,63.9208984375,62.4560546875,61.5283203125,60.9912109375,60.2587890625,60.1123046875,59.8193359375,58.8916015625,58.5009765625,57.3779296875,57.1337890625,56.7919921875,57.9150390625,60.0634765625,61.2353515625,62.3583984375,63.6767578125,64.6044921875,65.0927734375,65.6298828125,65.9228515625,66.1181640625,66.9970703125,66.2646484375,65.9716796875,66.7041015625,65.3369140625,64.4580078125,63.4814453125,62.6513671875,61.3330078125,61.1376953125,60.4541015625,59.7705078125,59.1357421875,58.9404296875,58.1103515625,56.7919921875,56.6943359375,56.9384765625,57.4755859375,59.5263671875,60.2587890625,61.5283203125,61.8212890625,62.6513671875,63.6767578125,64.3603515625,64.2626953125,63.8232421875,64.2138671875,64.1650390625,63.4814453125,62.9931640625,61.9677734375,61.0888671875,60.3564453125,59.8193359375,58.8916015625,57.5244140625,56.6455078125,56.1572265625,55.8154296875,54.4482421875,54.0087890625,54.0576171875,54.3017578125,56.4013671875,57.4267578125,58.0615234375,59.3798828125,60.6494140625,60.9912109375,61.0888671875,60.7470703125,61.5283203125,61.3330078125,61.2841796875,61.2353515625,61.0888671875,59.4287109375,59.0869140625,58.6474609375,58.1103515625,57.7685546875,57.1337890625,56.1572265625,55.5224609375,54.4482421875,54.4970703125,55.5712890625,57.0849609375,58.4521484375,58.9404296875,60.6982421875,61.8212890625,62.4560546875,62.7490234375,63.1396484375,62.8955078125,62.7978515625,63.2861328125,62.9443359375,62.4560546875,61.4794921875,60.6982421875,59.3310546875,58.2568359375,57.9150390625,57.8173828125,56.4013671875,56.0107421875,56.0595703125,55.0341796875,54.6923828125,55.4248046875,56.0595703125,57.1337890625,58.7451171875,59.2333984375,60.8935546875,61.7236328125,62.4560546875,62.6513671875,63.2861328125,63.6279296875,64.1162109375,63.9208984375,63.5302734375,63.2861328125,62.7978515625,61.3818359375,60.1611328125,59.1845703125,58.5498046875,58.0126953125,57.3779296875,56.8896484375,56.1572265625,55.7177734375,55.1318359375,55.0830078125,55.2783203125,56.5478515625,58.2568359375,59.0380859375,60.5029296875,60.8935546875,62.1630859375,62.4072265625,62.6025390625,62.3095703125,62.2607421875,62.5048828125,61.2841796875,61.2353515625,60.8935546875,59.9658203125,58.6474609375,57.5732421875,57.0849609375,56.4990234375,55.6689453125,55.3271484375,54.2041015625,53.4228515625,52.5927734375,51.2744140625,50.8349609375,51.4208984375,52.4951171875,54.4970703125,55.3759765625,55.9130859375,57.9150390625,57.8173828125,58.4033203125,58.2568359375,58.4521484375,58.0615234375,57.9638671875,58.7939453125,57.3779296875,57.3291015625,56.3525390625,55.0830078125,54.8876953125,54.6435546875,53.5205078125,52.9345703125,52.5927734375,51.3232421875,50.8349609375,50.2001953125,51.0791015625,52.1533203125,53.9599609375,54.8876953125,55.5712890625,56.0107421875,57.6220703125,57.4267578125,58.0615234375,58.5986328125,57.9638671875,58.0615234375,58.4521484375,58.9404296875,58.1591796875,57.3291015625,56.7431640625,55.6689453125,54.6435546875,54.5458984375,53.5205078125,53.0810546875,52.5439453125,51.5185546875,51.6650390625,52.5927734375,53.3740234375,54.9365234375,56.1572265625,57.2802734375,57.6708984375,58.7939453125,59.9169921875,59.4287109375,60.0634765625,60.2587890625,60.0146484375,60.0634765625,60.4052734375,59.4775390625,58.5009765625,57.8173828125,56.7431640625,55.9130859375,55.6689453125,55.2783203125,54.1064453125,53.9111328125,53.9111328125,52.5439453125,52.4462890625,52.0556640625,53.1787109375,53.4716796875,55.2783203125,56.9384765625,57.5732421875,59.2333984375,59.9658203125,60.1123046875,60.3564453125,60.4541015625,61.2353515625,60.9423828125,60.6982421875,60.8447265625,59.8681640625,58.9892578125,58.0126953125,56.8896484375,57.2314453125,56.6943359375,55.6201171875,54.8876953125,53.8134765625,53.4228515625,52.7880859375,51.6162109375,50.7861328125,51.0302734375,52.2998046875,53.3740234375,54.5947265625,56.2060546875,57.3779296875,57.9150390625,58.7939453125,59.5263671875,60.1123046875,59.3798828125,59.7216796875,59.5263671875,58.7451171875,58.6474609375,57.7685546875,57.0361328125,55.4248046875,55.1318359375,54.3505859375,53.9111328125,53.0322265625,52.4462890625,52.0068359375,51.2744140625,50.1513671875,49.6630859375,50.6884765625,51.5185546875,53.4228515625,54.0087890625,54.8876953125,56.0107421875,56.5966796875,57.1826171875,57.2314453125,56.8408203125,57.2802734375,57.4755859375,56.6943359375,57.0361328125,56.6455078125,55.3271484375,54.3505859375,54.1552734375,53.4228515625,53.1787109375,52.7880859375,52.1533203125,51.2744140625,51.6650390625,51.7626953125,53.0322265625,54.2041015625,55.0341796875,55.9619140625,56.9384765625,57.9150390625,58.0126953125,58.9404296875,59.2822265625,59.2822265625,59.0869140625,59.7705078125,59.6240234375,58.4033203125,57.5732421875,56.6943359375,56.2548828125,55.2783203125,55.3271484375,53.9599609375,53.2763671875,53.0810546875,52.9345703125,53.4716796875,54.7412109375,56.4013671875,57.7685546875,58.8916015625,59.8193359375,60.6005859375,61.3818359375,61.6748046875,62.0166015625,61.9677734375,62.1630859375,62.1142578125,62.1630859375,61.5283203125,60.5029296875,59.2333984375,58.4521484375,57.7197265625,56.8408203125,56.7919921875,56.0595703125,55.6201171875,54.7412109375,54.9853515625,55.6689453125,56.7431640625,57.8662109375,58.9892578125,59.6240234375,61.1376953125,61.9189453125,62.1630859375,62.6513671875,62.2607421875,62.1142578125,62.0654296875,62.2607421875,61.9189453125,60.6982421875,59.1845703125,58.1103515625,56.8896484375,56.0595703125,55.9130859375,55.3759765625,54.3994140625,53.9111328125,53.0322265625,52.4462890625,51.5185546875,50.1025390625,50.2490234375,50.9326171875,53.0810546875,53.9599609375,54.6923828125,55.9130859375,56.5478515625,57.4267578125,57.8173828125,57.8173828125,57.2802734375,57.9638671875,57.7197265625,56.6943359375,56.1083984375,55.7177734375,53.9111328125,54.3505859375,53.1298828125,52.8369140625,51.9091796875,51.6162109375,51.0302734375,49.7119140625,49.3701171875,49.3212890625,49.2236328125,50.9326171875,52.4951171875,53.1298828125,54.4482421875,55.3759765625,56.3037109375,56.4990234375,56.8408203125,56.6943359375,57.1826171875,56.9873046875,56.4013671875,56.2548828125,55.4736328125,54.6923828125,53.1298828125,52.7880859375,52.3486328125,50.9326171875,51.0791015625,50.3466796875,49.1748046875,49.3212890625,49.8583984375,50.2978515625,52.2021484375,52.7392578125,53.9111328125,54.6435546875,55.6689453125,56.1572265625,56.5478515625,56.8896484375,56.9873046875,57.5244140625,57.1826171875,57.2802734375,56.2060546875,55.7177734375,54.3017578125,53.7158203125,53.1787109375,51.9091796875,52.1533203125,50.9326171875,50.6396484375,50.3466796875,49.0283203125,48.6865234375,49.0283203125,49.5654296875,50.7373046875,52.2998046875,53.5693359375,54.2041015625,55.4736328125,55.7177734375,56.4013671875,56.6943359375,56.8408203125,56.8896484375,57.4267578125,56.8896484375,57.2314453125,56.6455078125,55.4736328125,54.0087890625,54.2529296875,53.4716796875,53.1787109375,51.5673828125,50.9814453125,49.9072265625,49.2236328125,49.0771484375,47.8564453125,47.2705078125,46.7822265625,47.1728515625,49.0771484375,50.3955078125,51.4208984375,51.6162109375,53.2763671875,54.0087890625,53.7158203125,54.2041015625,54.3994140625,54.3505859375,53.8134765625,54.1064453125,53.8623046875,53.1298828125,52.6904296875,51.4208984375,50.4443359375,50.1025390625,49.6630859375,49.0283203125,48.5400390625,47.8564453125,46.9287109375,46.7822265625,45.7080078125,45.3662109375,45.7080078125,45.5615234375,46.6845703125,48.5888671875,49.1259765625,50.2490234375,51.0791015625,51.6162109375,52.0556640625,52.9833984375,52.8369140625,52.9833984375,52.8369140625,53.2275390625,52.6904296875,51.9580078125,51.5673828125,50.7373046875,50.4443359375,49.9072265625,49.2724609375,48.5400390625,48.5400390625,47.7099609375,46.5869140625,47.2705078125,47.5146484375,47.9052734375,49.0283203125,51.0791015625,51.2255859375,52.3974609375,53.8134765625,54.2041015625,54.7900390625,55.1318359375,54.4970703125,55.5712890625,55.2783203125,55.7666015625,54.2529296875,53.5693359375,52.4462890625,51.6162109375,51.2744140625,50.6396484375,50.4443359375,50.3955078125,49.5654296875,48.1494140625,47.9541015625,48.1494140625,49.5166015625,50.1025390625,51.6650390625,52.9345703125,54.2529296875,55.3271484375,56.2548828125,56.3037109375,56.6455078125,56.7431640625,57.3291015625,56.9384765625,56.5478515625,56.8896484375,56.4990234375,55.3271484375,54.7412109375,54.1552734375,53.8623046875,52.8369140625,52.0556640625,52.1533203125,51.1279296875,50.2490234375,49.5654296875,48.8330078125,49.5654296875,50.9814453125,52.4462890625,53.3251953125,54.9853515625,55.5224609375,56.8896484375,56.8408203125,56.8408203125,57.1826171875,57.0361328125,56.9384765625,56.9873046875,56.2060546875,55.7177734375,55.0341796875,54.0576171875,53.4228515625,53.1787109375,52.3974609375,51.6162109375,50.8837890625,50.2490234375,49.0771484375,48.0517578125,47.1728515625,47.4169921875,47.9541015625,50.3466796875,50.6396484375,51.7626953125,53.2275390625,53.4716796875,54.9365234375,54.9853515625,55.0830078125,55.1806640625,55.0830078125,55.0341796875,55.0830078125,54.4482421875,53.4716796875,52.0556640625,51.9091796875,51.6650390625,51.2255859375,49.9072265625,50.0048828125,49.4189453125,48.4912109375,48.1494140625,48.1005859375,49.0283203125,50.7861328125,51.6650390625,52.5439453125,53.7158203125,54.2529296875,54.8876953125,55.3271484375,55.7177734375,55.3759765625,55.3759765625,55.4736328125,55.3759765625,54.6435546875,54.3505859375,52.7392578125,52.4462890625,51.8115234375,51.8115234375,50.6396484375,49.8583984375,49.0283203125,48.5888671875,49.5166015625,49.6630859375,51.0302734375,52.8369140625,53.5205078125,54.4482421875,55.2783203125,56.2060546875,57.1337890625,57.1826171875,57.3291015625,57.0849609375,57.7685546875,57.5732421875,57.2314453125,56.9873046875,55.6201171875,55.0341796875,54.1064453125,54.0087890625,52.8857421875,52.5439453125,51.6162109375,51.4208984375,50.5908203125,49.8095703125,49.5166015625,50.7373046875,52.0068359375,53.1298828125,54.3505859375,55.0341796875,56.2060546875,57.1337890625,57.7685546875,58.3544921875,58.1591796875,58.4033203125,58.4033203125,58.3056640625,57.5732421875,57.0361328125,55.9130859375,54.8876953125,54.3505859375,54.2041015625,52.7392578125,53.1787109375,52.4462890625,50.6396484375,49.9072265625,49.5654296875,47.9052734375,47.0751953125,47.6611328125,48.3935546875,49.8583984375,51.4208984375,51.8603515625,53.4228515625,53.4716796875,53.8134765625,54.0087890625,54.3505859375,54.5458984375,54.9853515625,54.5458984375,54.3017578125,54.1064453125,53.8623046875,52.5927734375,51.2744140625,51.3232421875,50.6396484375,50.1513671875,50.2001953125,49.3701171875,48.4423828125,47.6123046875,47.2216796875,47.4658203125,48.0517578125,49.3701171875,50.1025390625,51.5185546875,52.2998046875,53.0322265625,54.0087890625,54.5947265625,54.5458984375,54.9365234375,54.5458984375,54.6923828125,55.3271484375,54.2041015625,53.3251953125,52.4462890625,52.1044921875,51.7138671875,51.1279296875,50.4443359375,50.2490234375,50.0537109375,49.1748046875,48.7841796875,49.5654296875,50.7861328125,52.0068359375,53.3251953125,54.1552734375,55.1806640625,56.7919921875,56.7431640625,56.9873046875,57.9150390625,57.4267578125,58.0126953125,58.1103515625,57.5244140625,57.7685546875,56.1083984375,55.1318359375,54.5458984375,53.8134765625,53.5205078125,53.1787109375,53.3740234375,52.8857421875,51.3232421875,51.1767578125,51.3720703125,51.7626953125,53.7646484375,54.7412109375,55.3759765625,56.5966796875,57.7197265625,58.6962890625,58.8916015625,59.7216796875,59.7216796875,59.6240234375,60.0146484375,59.9169921875,59.7705078125,58.8427734375,57.8662109375,56.7431640625,56.8408203125,56.0107421875,55.1318359375,54.8388671875,53.8134765625,53.0322265625,52.1533203125,51.7138671875,51.2255859375,51.0791015625,53.0810546875,54.2529296875,55.3271484375,56.3037109375,57.1337890625,57.4755859375,58.2080078125,57.5244140625,58.4033203125,58.6474609375,58.2568359375,58.3056640625,57.8662109375,56.9384765625,55.9130859375,54.9365234375,53.4716796875,53.3740234375,52.4462890625,51.5185546875,51.3720703125,50.4931640625,49.3212890625,48.2958984375,48.6865234375,49.3701171875,51.3232421875,52.4462890625,53.3740234375,54.7900390625,55.0830078125,55.2294921875,55.5712890625,55.3759765625,56.0595703125,55.6201171875,55.9619140625,56.3037109375,55.2294921875,54.4970703125,53.8623046875,53.3251953125,51.9091796875,51.4697265625,51.2744140625,51.0302734375,49.9072265625,48.9794921875,49.2724609375,49.5166015625,51.0302734375,52.9345703125,53.0322265625,54.5458984375,54.9853515625,56.0107421875,56.3037109375,56.8408203125,57.3779296875,56.9384765625,57.3291015625,57.6220703125,57.3779296875,56.4501953125,55.6689453125,54.9853515625,54.7900390625,53.1787109375,52.1044921875,51.9091796875,51.3232421875,50.4931640625,49.7119140625,50.2978515625,51.4208984375,52.6904296875,52.8857421875,54.1064453125,55.5224609375,56.7431640625,57.0849609375,57.5732421875,58.2568359375,57.6708984375,58.2568359375,58.5986328125,59.1845703125,57.3779296875,57.7685546875,55.6689453125,55.3759765625,54.6435546875,53.6669921875,53.2763671875,52.6416015625,51.8603515625,51.2744140625,50.4931640625,49.4677734375,50.1025390625,50.6884765625,51.7138671875,53.0810546875,53.9599609375,54.6923828125,56.2060546875,56.5966796875,56.8896484375,56.9873046875,57.2802734375,56.9873046875,56.7431640625,56.7919921875,56.1083984375,54.7412109375,53.9111328125,51.9580078125,51.7138671875,51.1767578125,50.9326171875,50.5419921875,49.3212890625,48.9306640625,47.9052734375,46.5380859375,46.1474609375,45.9033203125,46.2451171875,47.9052734375,48.5400390625,48.8818359375,50.0048828125,51.5185546875,51.5673828125,52.6904296875,52.2021484375,52.5439453125,52.6904296875,52.6904296875,51.8115234375,50.6396484375,50.2001953125,49.4189453125,48.4912109375,48.1982421875,47.4169921875,47.1728515625,46.5380859375,45.6591796875,44.9755859375,45.0732421875,45.4150390625,47.0751953125,48.4912109375,48.9794921875,49.8583984375,50.8837890625,52.0556640625,52.2021484375,52.2509765625,52.6416015625,52.5927734375,52.7880859375,53.0810546875,52.7392578125,51.3232421875,50.2490234375,49.6142578125,49.1259765625,48.8818359375,48.4912109375,47.1728515625,46.7333984375,46.8310546875,47.1240234375,47.7099609375,49.9560546875,51.2255859375,52.2021484375,53.0322265625,53.8134765625,54.6435546875,54.3505859375,54.6923828125,55.2783203125,55.5224609375,55.3759765625,55.6689453125,55.2294921875,53.8623046875,52.9345703125,51.8603515625,51.6650390625,50.7373046875,50.3466796875,49.9560546875,49.7119140625,48.5888671875,48.9306640625,49.5166015625,51.1279296875,52.2021484375,53.7646484375,54.7412109375,55.3759765625,55.5224609375,56.2060546875,56.7919921875,56.9384765625,56.9873046875,57.5244140625,57.1337890625,56.7919921875,55.6689453125,54.3994140625,53.3740234375,53.0810546875,52.4462890625,51.9091796875,51.8115234375,50.9326171875,50.1025390625,49.6142578125,48.4423828125,48.2470703125,48.7841796875,50.1025390625,51.0302734375,51.9091796875,53.1298828125,53.8134765625,54.2041015625,55.0341796875,55.0830078125,54.9365234375,54.9365234375,55.0830078125,54.1552734375,53.5693359375,53.2275390625,51.2744140625,50.9814453125,49.9072265625,49.4677734375,49.2236328125,48.5888671875,47.8564453125,46.7822265625,46.4404296875,45.6591796875,45.9521484375,47.8564453125,49.2236328125,50.1025390625,50.3466796875,50.6884765625,51.8115234375,52.5927734375,52.9345703125,52.4951171875,52.3486328125,52.6904296875,52.7392578125,52.2509765625,51.0302734375,50.3466796875,50.2001953125,49.7607421875,49.1748046875,48.8330078125,48.8818359375,46.8310546875,47.6123046875,47.3193359375,49.0771484375,50.0048828125,50.9814453125,51.5185546875,52.3486328125,52.9345703125,53.8623046875,54.1064453125,53.7646484375,53.9111328125,53.9111328125,54.8876953125,54.2529296875,53.2763671875,52.8369140625,51.5673828125,50.8837890625,50.7861328125,49.5654296875,49.2236328125,49.1748046875,48.1005859375,48.9306640625,49.4189453125,50.6396484375,52.2021484375,53.1298828125,53.6669921875,54.7412109375,55.6201171875,55.5712890625,56.1083984375,56.6455078125,56.7919921875,57.4267578125,57.8173828125,57.2802734375,56.4990234375,55.8154296875,54.4970703125,53.7646484375,52.7880859375,52.6904296875,52.3974609375,52.2509765625,51.3232421875,50.3466796875,49.5654296875,50.1025390625,50.9326171875,52.6416015625,53.6669921875,54.8388671875,55.3759765625,55.4736328125,57.0849609375,56.6455078125,57.4267578125,57.3291015625,57.4755859375,57.4267578125,56.7919921875,55.7666015625,54.5458984375,53.4716796875,52.0556640625,52.3486328125,50.8837890625,50.6884765625,50.2001953125,49.3701171875,48.4912109375,48.1005859375,46.6845703125,46.5380859375,46.9775390625,48.2958984375,49.4189453125,50.1025390625,51.5185546875,52.4951171875,52.4951171875,53.4716796875,53.1787109375,53.0322265625,53.6669921875,53.0810546875,53.4228515625,52.8369140625,52.1044921875,50.8349609375,50.1025390625,49.7119140625,49.0771484375,48.0029296875,47.9541015625,47.3681640625,46.0498046875,45.7080078125,45.8544921875,47.2216796875,48.5400390625,48.9306640625,50.1025390625,50.8837890625,51.5673828125,52.5439453125,52.6904296875,52.4951171875,53.3740234375,52.9345703125,53.5205078125,53.1787109375,52.4951171875,51.6162109375,50.5908203125,49.8095703125,49.4189453125,49.0283203125,48.5400390625,47.7099609375,46.8310546875,46.8310546875,47.8076171875,48.8818359375,50.2001953125,51.3720703125,52.0556640625,52.4951171875,53.2763671875,53.2275390625,53.7158203125,53.8134765625,54.4970703125,54.5458984375,54.9853515625,54.4482421875,53.2763671875,52.2509765625,51.8603515625,49.8095703125,49.9072265625,49.5654296875,48.9306640625,48.1494140625,47.7099609375,47.7587890625,48.0029296875,49.2236328125,51.2744140625,51.3720703125,52.7392578125,53.4228515625,54.3994140625,54.4482421875,55.1318359375,55.0341796875,55.6689453125,56.2548828125,55.8154296875,55.5712890625,54.7412109375,54.1552734375,53.0810546875,52.0556640625,50.6884765625,50.6884765625,50.2978515625,49.4189453125,48.7353515625,47.5634765625,47.7587890625,48.2470703125,47.9052734375,49.8583984375,50.9326171875,51.6650390625,52.0068359375,52.5439453125,52.7880859375,53.2763671875,53.6181640625,53.7646484375,53.6181640625,53.9111328125,54.0087890625,53.3740234375,52.7880859375,51.4208984375,50.6396484375,50.2490234375,49.2724609375,48.1982421875,47.9052734375,46.6845703125,46.2451171875,45.5615234375,46.4892578125,48.0029296875,49.2724609375,49.9560546875,50.0537109375,50.9814453125,52.0068359375,51.3232421875,52.3486328125,51.6650390625,51.7138671875,52.4462890625,52.0556640625,52.4951171875,51.0791015625,50.3955078125,49.0283203125,48.5888671875,47.8076171875,47.8076171875,47.2216796875,46.6357421875,46.5869140625,47.0751953125,49.0771484375,50.5419921875,51.1279296875,51.5673828125,52.8369140625,53.0810546875,53.3251953125,54.2041015625,53.2763671875,53.2763671875,54.5458984375,53.9111328125,53.8623046875,53.3251953125,52.1533203125,50.8349609375,50.7861328125,50.1513671875,49.6630859375,48.6376953125,48.5888671875,48.9306640625,50.7861328125,52.1533203125,53.7646484375,54.3994140625,55.5224609375,56.3525390625,56.4013671875,56.6455078125,56.8408203125,56.9873046875,57.3779296875,57.6220703125,57.6708984375,56.8408203125,56.4013671875,54.9853515625,54.2041015625,53.5693359375,53.1298828125,53.2275390625,52.6904296875,51.2744140625,51.8603515625,52.8369140625,53.7158203125,55.3759765625,56.2548828125,57.4755859375,57.5732421875,57.7197265625,57.9150390625,58.3544921875,58.0126953125,58.7939453125,59.2822265625,58.7939453125,58.7451171875,57.3779296875,56.8408203125,55.2294921875,54.2529296875,53.2763671875,53.1787109375,52.2021484375,51.5673828125,50.6884765625,50.0048828125,49.6142578125,50.0048828125,50.5908203125,52.5927734375,53.2763671875,53.7646484375,54.4970703125,54.8876953125,55.2294921875,56.1083984375,56.6943359375,56.2060546875,56.4013671875,57.4267578125,55.5224609375,55.7177734375,54.3505859375,52.9345703125,52.3486328125,51.8115234375,51.4697265625,49.9560546875,49.8583984375,48.9306640625,48.4423828125,47.5634765625,47.9052734375,48.7353515625,50.2001953125,51.7626953125,51.6650390625,52.3486328125,53.4228515625,54.3994140625,54.4970703125,54.8876953125,54.7900390625,55.1318359375,54.9853515625,54.8388671875,54.3017578125,53.3740234375,52.0556640625,51.2255859375,51.3720703125,51.0302734375,50.4443359375,49.6142578125,48.9306640625,49.6142578125,49.6142578125,50.2001953125,51.9091796875,53.1298828125,53.6669921875,54.1552734375,55.0830078125,55.8154296875,56.4990234375,56.5478515625,56.6943359375,56.9873046875,56.6943359375,56.6943359375,55.5224609375,55.1806640625,53.3251953125,53.4716796875,52.2021484375,51.4208984375,51.4697265625,50.8837890625,50.9326171875,49.9072265625,49.7119140625,50.1513671875,51.8115234375,53.2275390625,54.7412109375,55.3271484375,55.8154296875,56.3525390625,57.5244140625,57.8662109375,58.0615234375,59.2333984375,58.4033203125,58.5009765625,58.5986328125,57.1337890625,56.2060546875,54.9853515625,54.1064453125,53.6669921875,53.0322265625,52.5439453125,52.2509765625,51.3720703125,51.1767578125,50.1513671875,50.0537109375,50.4931640625,52.2998046875,53.7646484375,54.7412109375,54.6923828125,56.4013671875,56.4501953125,57.1826171875,56.8896484375,57.1826171875,57.3779296875,57.4267578125,56.7431640625,56.2548828125,55.6201171875,54.2041015625,53.8134765625,52.7880859375,51.7626953125,51.1279296875,50.6884765625,49.9072265625,49.2236328125,48.2470703125,48.3447265625,48.2470703125,49.4189453125,50.8837890625,51.4697265625,52.4951171875,53.2763671875,54.2041015625,54.0087890625,54.5947265625,54.4482421875,54.3017578125,54.6923828125,54.6923828125,54.2041015625,53.3251953125,51.7626953125,50.2001953125,49.8095703125,49.7119140625,49.6142578125,49.0771484375,48.3447265625,47.8076171875,47.0263671875,47.5634765625,48.5400390625,49.6142578125,50.3466796875,51.3232421875,52.4951171875,53.1787109375,53.7158203125,54.1552734375,54.6435546875,54.2529296875,54.8388671875,55.1806640625,54.0576171875,54.3017578125,52.8369140625,51.6162109375,51.2744140625,50.5419921875,49.7119140625,49.5166015625,49.1748046875,48.1005859375,47.1240234375,47.0263671875,48.6865234375,49.4189453125,50.8349609375,51.6650390625,52.7880859375,53.7158203125,54.2529296875,54.5458984375,54.6435546875,55.8642578125,55.9619140625,55.8154296875,55.6201171875,54.8876953125,54.2041015625,54.0087890625,52.5927734375,50.9326171875,51.3232421875,50.3955078125,50.1025390625,49.6630859375,48.8818359375,47.8076171875,47.4658203125,47.6123046875,48.3935546875,50.1025390625,51.3720703125,51.9580078125,52.8857421875,54.2529296875,54.9853515625,55.1318359375,55.5224609375,55.2783203125,55.0830078125,55.1806640625,54.8876953125,54.4482421875,53.7646484375,52.7392578125,51.6162109375,50.5419921875,50.2490234375,49.4189453125,48.5400390625,47.6611328125,47.5146484375,46.1962890625,45.7568359375,45.3662109375,45.7080078125,46.9775390625,48.5888671875,49.8095703125,50.0048828125,51.2255859375,51.7626953125,51.9091796875,52.3974609375,52.2509765625,52.3974609375,52.1044921875,52.4462890625,51.9580078125,51.5673828125,50.4443359375,49.3212890625,48.2958984375,47.8564453125,47.5634765625,47.1728515625,46.5869140625,44.9755859375,44.4873046875,45.2197265625,45.4150390625,47.2216796875,47.8076171875,49.3212890625,50.0537109375,50.3955078125,51.5185546875,51.7626953125,52.2021484375,51.7626953125,51.5673828125,52.5439453125,52.6904296875,51.9091796875,50.9326171875,49.7119140625,49.0771484375,48.3935546875,48.6376953125,48.0029296875,47.2216796875,46.1474609375,46.5380859375,47.2705078125,49.1748046875,50.5908203125,51.8115234375,52.1044921875,53.6669921875,53.9111328125,54.3017578125,54.3017578125,54.9365234375,55.2783203125,55.2294921875,54.9853515625,55.1318359375,54.2529296875,53.6181640625,51.8603515625,50.9814453125,50.5908203125,50.2001953125,49.6630859375,49.4189453125,48.1982421875,47.8076171875,47.8076171875,48.9306640625,50.9326171875,51.5673828125,52.5439453125,53.7646484375,54.3994140625,54.8388671875,54.8876953125,55.1806640625,55.9130859375,55.7666015625,55.8154296875,55.5224609375,55.5712890625,54.3994140625,52.9833984375,51.7138671875,51.6650390625,50.8837890625,49.9560546875,49.5654296875,49.5654296875,48.7353515625,47.3193359375,46.8798828125,47.8076171875,48.9794921875,49.7607421875,51.4208984375,52.0068359375,53.0322265625,53.4228515625,54.2529296875,54.3505859375,54.5458984375,54.5458984375,54.3994140625,54.5458984375,53.5693359375,53.4716796875,51.8603515625,51.0791015625,50.3955078125,49.9072265625,49.5166015625,48.2470703125,48.1494140625,47.6611328125,46.1474609375,45.7568359375,45.2685546875,45.0244140625,46.8798828125,48.6376953125,48.7841796875,50.0537109375,50.6884765625,51.2744140625,51.5185546875,51.5673828125,51.7138671875,52.3974609375,51.7626953125,51.1279296875,50.8837890625,49.7119140625,48.7841796875,48.0517578125,47.4658203125,46.9775390625,46.2939453125,45.7568359375,44.9755859375,43.9013671875,44.6826171875,45.0244140625,46.3427734375,48.0029296875,47.7099609375,49.4677734375,49.9560546875,50.4443359375,50.7861328125,50.6884765625,51.2255859375,51.3232421875,51.9580078125,51.3232421875,51.6650390625,50.1513671875,49.0283203125,48.3447265625,47.8076171875,47.6611328125,47.0263671875,45.9033203125,45.9033203125,46.5869140625,46.1962890625,48.6865234375,49.0771484375,50.2490234375,51.4208984375,52.0556640625,52.4462890625,52.5927734375,53.3251953125,52.8857421875,53.9599609375,53.7158203125,53.6669921875,53.2763671875,53.0810546875,51.7138671875,50.5908203125,50.2001953125,48.8330078125,48.4423828125,47.6611328125,47.2705078125,46.1962890625,46.0009765625,46.4892578125,48.3935546875,49.6142578125,51.1767578125,51.6162109375,52.5439453125,53.5205078125,53.3251953125,53.4716796875,54.2529296875,54.8388671875,54.6923828125,54.6435546875,55.1318359375,54.4970703125,53.7158203125,51.8115234375,50.6884765625,50.2490234375,49.6630859375,48.6865234375,48.1494140625,47.6123046875,47.3681640625,46.4404296875,45.4638671875,45.0244140625,45.1220703125,46.0986328125,47.2705078125,47.4658203125,48.4912109375,49.4677734375,50.4443359375,51.0302734375,51.1279296875,50.6396484375,51.0302734375,51.4697265625,51.3232421875,50.0048828125,49.3212890625,48.4912109375,47.7099609375,46.4892578125,46.3916015625,45.4150390625,45.5126953125,44.6826171875,43.8525390625,43.2666015625,43.8525390625,43.8525390625,45.6103515625,46.7333984375,46.6845703125,47.5634765625,48.4423828125,48.7353515625,48.7841796875,48.6376953125,48.9306640625,48.9306640625,49.1748046875,49.9072265625,48.3935546875,47.8076171875,46.7333984375,46.0498046875,45.3662109375,46.0009765625,45.4638671875,45.0244140625,44.0478515625,44.2919921875,45.2685546875,46.6845703125,47.9052734375,48.4912109375,49.1259765625,49.9072265625,50.3466796875,50.9326171875,50.7861328125,50.7861328125,51.1767578125,51.7626953125,51.9580078125,51.3720703125,50.3955078125,49.3701171875,48.7841796875,48.4423828125,47.3193359375,46.9287109375,46.3916015625,45.2685546875,45.5615234375,46.7822265625,47.9541015625,49.3212890625,50.2490234375,51.3232421875,51.9580078125,52.8857421875,52.8369140625,53.0322265625,53.4716796875,53.8623046875,54.1064453125,54.3017578125,53.9111328125,52.6904296875,52.5927734375,51.5673828125,50.6884765625,50.0048828125,48.9306640625,48.9794921875,48.5888671875,48.1494140625,46.6845703125,47.6123046875,47.7099609375,49.0771484375,50.4443359375,51.1767578125,52.2998046875,53.2763671875,52.9345703125,53.9111328125,54.0087890625,53.7646484375,53.9111328125,53.8134765625,54.0087890625,53.9599609375,52.7392578125,52.1533203125,51.4697265625,49.8583984375,49.5654296875,48.5888671875,47.5146484375,47.3681640625,46.5380859375,45.4150390625,45.5615234375,46.0986328125,48.0029296875,48.8818359375,50.0048828125,50.3466796875,50.8837890625,51.7138671875,51.9091796875,51.8115234375,52.4951171875,52.2998046875,52.2021484375,51.7626953125,51.1767578125,50.3955078125,49.1259765625,47.7587890625,47.3193359375,46.7822265625,47.1728515625,46.1474609375,44.8779296875,45.1220703125,45.0732421875,47.1728515625,47.8564453125,48.9794921875,49.8583984375,50.5908203125,51.2255859375,51.6162109375,52.2998046875,52.0068359375,52.2998046875,52.8369140625,52.5927734375,51.9580078125,51.5185546875,50.2978515625,49.2236328125,48.0517578125,48.1494140625,47.3681640625,46.2939453125,46.2451171875,46.2451171875,46.8310546875,47.8076171875,49.7119140625,50.0048828125,51.1279296875,52.1044921875,52.9833984375,53.5693359375,53.4228515625,53.9111328125,53.9111328125,54.2041015625,53.7158203125,53.5693359375,52.3974609375,51.6650390625,50.9814453125,49.2236328125,49.3212890625,48.0517578125,47.9052734375,47.5634765625,46.4892578125,46.0498046875,46.0498046875,46.8310546875,48.2958984375,48.5888671875,50.1025390625,51.0791015625,52.1044921875,52.4951171875,52.8369140625,53.1298828125,53.4716796875,53.3251953125,53.5205078125,53.7646484375,53.0810546875,52.3486328125,50.8837890625,49.9072265625,48.6376953125,48.3935546875,48.4423828125,47.4169921875,47.1728515625,45.4638671875,45.1220703125,45.3662109375,46.1962890625,46.7822265625,47.9052734375,49.2724609375,50.0048828125,49.9072265625,50.6396484375,50.7861328125,51.0302734375,51.6162109375,51.4208984375,51.1279296875,50.7861328125,50.2490234375,50.2490234375,48.8818359375,48.1982421875,46.7822265625,46.0986328125,45.7080078125,44.9267578125,43.9990234375,43.2666015625,43.1201171875,42.9736328125,43.8037109375,45.2685546875,46.6845703125,47.4169921875,47.7099609375,48.5888671875,49.0283203125,49.1748046875,49.3701171875,49.0283203125,49.3701171875,49.7607421875,48.8330078125,47.9541015625,47.2216796875,46.1474609375,45.3662109375,45.3173828125,44.8779296875,44.6826171875,43.8525390625,43.1689453125,43.6083984375,44.7802734375,46.1474609375,47.4658203125,47.9541015625,48.3447265625,49.2724609375,50.1025390625,49.9560546875,50.5419921875,50.0048828125,50.6884765625,50.8349609375,50.9814453125,50.5419921875,49.5654296875,47.8076171875,47.4169921875,46.7822265625,46.4404296875,45.4638671875,45.5126953125,44.6337890625,45.3662109375,45.8544921875,47.6611328125,48.4912109375,49.1748046875,50.1513671875,51.1279296875,51.4697265625,51.2744140625,51.7138671875,52.0068359375,52.0068359375,52.8369140625,52.8857421875,52.2998046875,51.0302734375,50.4443359375,48.7353515625,48.8330078125,47.5634765625,47.0751953125,46.1474609375,45.8056640625,45.4150390625,45.3173828125,46.6845703125,48.2470703125,49.4189453125,50.6396484375,50.8837890625,52.0068359375,51.9091796875,52.2998046875,52.6416015625,52.8369140625,53.1298828125,52.7392578125,52.9345703125,51.9091796875,50.8837890625,49.7119140625,48.1494140625,47.7099609375,46.5380859375,46.1474609375,45.7568359375,44.4384765625,43.5107421875,43.7548828125,44.2919921875,46.2939453125,46.7333984375,47.8076171875,48.3935546875,49.0771484375,49.1259765625,50.0537109375,49.5654296875,49.6630859375,49.5166015625,49.2236328125,49.2724609375,48.6376953125,47.5634765625,46.5380859375,45.1708984375,44.8779296875,44.0478515625,43.7548828125,42.8271484375,42.3388671875,41.7041015625,42.5341796875,43.3642578125,45.4638671875,45.4150390625,45.9521484375,46.6357421875,47.2705078125,47.0751953125,47.5634765625,47.4169921875,47.4658203125,48.0029296875,48.1005859375,47.4658203125,46.6357421875,45.5126953125,44.5849609375,44.3896484375,43.6572265625,43.1201171875,42.1923828125,42.1435546875,42.7294921875,43.8037109375,45.4638671875,46.4892578125,46.5380859375,47.6123046875,48.1982421875,49.3212890625,49.0283203125,49.8583984375,49.5166015625,49.8095703125,49.7119140625,50.3466796875,48.8818359375,48.8818359375,47.4169921875,46.8310546875,46.0009765625,44.7802734375,44.3408203125,43.7548828125,43.1201171875,44.0478515625,45.2197265625,46.5380859375,47.7099609375,48.2958984375,49.4677734375,50.0537109375,50.6884765625,51.2255859375,51.2744140625,51.4697265625,51.0302734375,51.3720703125,52.0556640625,51.3232421875,51.1279296875,49.2724609375,48.6865234375,47.3681640625,46.4404296875,46.4892578125,45.4150390625,44.4384765625,44.7314453125,45.3662109375,46.2939453125,48.0029296875,48.9794921875,50.1513671875,50.7861328125,51.5673828125,51.5673828125,52.1533203125,52.0556640625,52.2509765625,51.8115234375,51.4697265625,51.7138671875,51.0302734375,49.7119140625,48.3935546875,47.8076171875,46.8310546875,46.0498046875,45.3662109375,44.6826171875,43.9501953125,43.1201171875,43.4619140625,43.8037109375,46.0009765625,46.0986328125,46.7822265625,47.9541015625,48.3447265625,48.5400390625,48.5400390625,48.4912109375,48.5400390625,48.0029296875,48.3935546875,47.9541015625,47.2705078125,45.8056640625,45.1220703125,44.0478515625,43.8037109375,43.6572265625,42.4853515625,41.3623046875,41.5087890625,41.5576171875,43.1201171875,44.2919921875,44.9755859375,45.5615234375,45.7080078125,46.8310546875,46.8798828125,47.1240234375,47.0751953125,47.7099609375,47.7587890625,48.0517578125,48.2470703125,47.4169921875,46.9287109375,44.8291015625,44.2431640625,43.7060546875,43.3154296875,42.9736328125,41.7041015625,42.3876953125,43.1201171875,44.3408203125,45.5615234375,46.8310546875,47.1240234375,47.7099609375,47.8076171875,48.1494140625,48.8818359375,48.4423828125,49.1259765625,49.2236328125,49.2236328125,48.8330078125,47.6123046875,46.9775390625,45.6103515625,44.0478515625,44.0966796875,42.9248046875,42.2412109375,41.5087890625,41.6552734375,42.9248046875,43.7548828125,45.4150390625,46.2451171875,47.0263671875,47.7587890625,47.8076171875,47.8564453125,47.7587890625,48.3935546875,48.9306640625,48.4912109375,48.3447265625,48.2958984375,47.7099609375,45.8056640625,45.4150390625,44.2919921875,42.9248046875,42.6318359375,42.2412109375,40.7763671875,40.4833984375,39.9462890625,40.4345703125,40.9716796875,42.7294921875,43.6083984375,44.5361328125,45.3173828125,46.3427734375,46.6357421875,46.5380859375,46.0009765625,46.4404296875,46.3916015625,46.0498046875,46.0009765625,45.1220703125,43.9013671875,43.7548828125,42.2412109375,41.0205078125,40.1416015625,39.8486328125,39.9951171875,38.2373046875,38.3349609375,39.0673828125,40.1416015625,41.2646484375,42.1923828125,42.4853515625,43.0712890625,44.1943359375,44.0478515625,44.4873046875,44.8291015625,44.8291015625,44.8291015625,44.9267578125,45.3662109375,43.9013671875,42.7294921875,41.0693359375,40.5810546875,40.5810546875,40.0439453125,39.3115234375,39.1650390625,39.6044921875,40.4345703125,42.3876953125,43.9013671875,44.8291015625,45.2685546875,45.9033203125,46.0986328125,46.2939453125,46.8798828125,46.0009765625,46.4404296875,46.2451171875,46.7822265625,46.1962890625,44.9267578125,43.8525390625,43.2177734375,43.0224609375,41.8994140625,41.4111328125,40.2880859375,39.2626953125,39.7509765625,40.6787109375,42.4365234375,43.8525390625,43.9501953125,45.5126953125,45.9521484375,46.7822265625,46.9287109375,46.1962890625,46.7333984375,47.1728515625,47.0751953125,47.0263671875,46.2939453125,46.0009765625,44.5361328125,43.7548828125,41.9482421875,40.9716796875,40.5322265625,40.0439453125,38.9208984375,38.0419921875,37.8955078125,38.0419921875,38.7744140625,40.0439453125,41.0205078125,42.3388671875,42.8271484375,42.9736328125,43.2177734375,44.2431640625,43.8525390625,43.5595703125,43.8037109375,43.6572265625,42.8271484375,42.1923828125,41.0693359375,39.7998046875,38.8232421875,38.1396484375,37.4072265625,36.4306640625,36.1865234375,34.9169921875,34.6728515625,34.5751953125,35.5029296875,37.3583984375,38.1396484375,39.1650390625,39.3115234375,40.4833984375,39.7998046875,40.3857421875,40.3857421875,40.3369140625,40.1416015625,40.0439453125,39.9951171875,39.5556640625,38.2373046875,37.1630859375,35.6494140625,35.4052734375,34.5263671875,34.1357421875,33.6474609375,33.6474609375,33.9892578125,35.7470703125,36.8701171875,37.7978515625,39.0185546875,39.3115234375,39.7998046875,39.6044921875,39.6044921875,39.3115234375,39.2626953125,40.2392578125,40.0927734375,39.9951171875,39.3603515625,38.2861328125,37.3583984375,35.9423828125,35.5517578125,35.0634765625,33.4521484375,34.1357421875,34.8681640625,35.6005859375,37.8955078125,38.5302734375,39.9462890625,41.2646484375,41.5087890625,41.5576171875,41.4111328125,41.6552734375,41.9482421875,41.4111328125,41.8505859375,41.8505859375,41.5576171875,40.6298828125,39.7021484375,38.1396484375,37.4560546875,37.2607421875,36.4306640625,35.8447265625,35.4052734375,35.6982421875,37.6513671875,39.4091796875,40.2880859375,41.1181640625,43.0224609375,42.0458984375,42.1923828125,42.7294921875,42.2900390625,42.4365234375,42.2412109375,42.3876953125,42.5341796875,41.6552734375,40.6787109375,39.6533203125,38.5791015625,37.8466796875,36.8701171875,36.2841796875,35.6005859375,34.5263671875,33.8916015625,34.8681640625,35.4052734375,37.5048828125,37.7001953125,38.8720703125,39.8486328125,39.6044921875,40.4345703125,39.5068359375,39.5556640625,40.0439453125,40.2392578125,40.0927734375,40.1904296875,39.3603515625,38.5791015625,37.4072265625,36.5283203125,35.4541015625,35.2099609375,34.6728515625,33.4521484375,33.1103515625,33.5498046875,34.3798828125,35.6494140625,36.9189453125,37.3095703125,38.2373046875,37.9443359375,38.6767578125,38.7744140625,38.3349609375,38.9208984375,39.8974609375,39.6044921875,39.2626953125,38.2861328125,37.1630859375,36.3818359375,35.4541015625,35.2099609375,34.7705078125,34.2333984375,33.6474609375,34.4287109375,35.3564453125,36.9189453125,38.1396484375,39.1162109375,39.7021484375,40.8251953125,39.7998046875,39.9951171875,40.8251953125,41.3623046875,41.5576171875,41.5087890625,41.4111328125,40.5810546875,40.4345703125,39.1162109375,38.2861328125,37.6025390625,36.9677734375,36.7236328125,36.3330078125,36.7724609375,37.8466796875,39.2626953125,40.6787109375,42.2900390625,42.6806640625,43.4130859375,43.6572265625,43.6083984375,43.9501953125,44.0966796875,44.4873046875,44.3408203125,44.6337890625,43.9990234375,43.4619140625,42.1435546875,41.2646484375,40.4345703125,39.7021484375,39.0673828125,38.2861328125,38.2861328125,38.9208984375,40.1904296875,41.8505859375,43.2666015625,43.9990234375,44.8291015625,44.7802734375,45.1220703125,45.2685546875,45.3662109375,45.3662109375,45.5615234375,45.7080078125,45.5615234375,45.1708984375,43.9501953125,43.1689453125,42.3388671875,41.4599609375,40.5810546875,39.8974609375,38.7744140625,37.8955078125,37.7978515625,38.6767578125,39.3115234375,40.6787109375,42.2900390625,42.6318359375,43.8525390625,44.1455078125,43.4130859375,44.2431640625,43.7548828125,43.8037109375,43.5107421875,43.4130859375,42.7783203125,42.3876953125,40.7763671875,40.4833984375,39.3603515625,38.8720703125,38.3349609375,37.3095703125,36.4306640625,36.4794921875,37.4072265625,38.9208984375,39.7998046875,40.4833984375,41.5576171875,41.4111328125,42.2412109375,42.3876953125,42.6806640625,42.2900390625,42.3876953125,42.6318359375,42.4365234375,41.3134765625,41.5576171875,39.6533203125,38.9697265625,38.8232421875,38.6767578125,37.8466796875,37.1142578125,37.6513671875,38.0419921875,39.8486328125,40.3369140625,41.5576171875,42.4853515625,42.9736328125,43.2666015625,43.1689453125,43.4130859375,43.8525390625,43.7548828125,44.0966796875,44.0478515625,43.6083984375,42.4365234375,41.6064453125,40.6787109375,39.6044921875,38.9208984375,38.1396484375,37.3583984375,37.0654296875,37.8955078125,38.6279296875,40.7763671875,41.3134765625,42.4365234375,43.2177734375,43.7060546875,44.0966796875,43.6572265625,43.9990234375,43.9990234375,43.9501953125,44.7314453125,43.7548828125,44.0478515625,43.3154296875,41.8017578125,41.3623046875,40.2880859375,39.2138671875,38.9697265625,38.0419921875,37.4560546875,37.0654296875,37.6513671875,39.3603515625,40.7763671875,41.5087890625,42.5830078125,42.7294921875,43.4130859375,43.5107421875,43.8525390625,42.9248046875,43.6083984375,43.6083984375,43.5595703125,43.1689453125,42.3876953125,40.7275390625,39.5068359375,38.2861328125,37.7978515625,36.6748046875,36.4794921875,35.9912109375,34.7216796875,34.2333984375,34.7705078125,35.4541015625,37.6513671875,38.3349609375,38.8720703125,39.1650390625,39.6044921875,39.7021484375,40.0927734375,40.2880859375,40.0927734375,40.2880859375,40.1904296875,40.3857421875,39.4580078125,37.8466796875,36.8701171875,36.2353515625,35.6005859375,34.7216796875,34.4775390625,33.6962890625,33.3056640625,33.1591796875,34.1845703125,35.7958984375,36.6259765625,36.8701171875,37.7490234375,38.2861328125,38.4326171875,38.1884765625,37.8466796875,39.0185546875,39.0673828125,39.4091796875,39.2626953125,38.8232421875,38.2861328125,37.0654296875,35.7470703125,36.2841796875,35.3076171875,34.5263671875,33.8916015625,34.2822265625,35.0634765625,36.4794921875,37.9931640625,39.0673828125,39.5068359375,40.1416015625,40.7763671875,40.6298828125,40.6787109375,40.6298828125,40.6787109375,40.9228515625,41.1669921875,41.4111328125,40.6298828125,39.2626953125,37.8955078125,37.7490234375,36.8701171875,35.8935546875,35.6005859375,35.4052734375,35.7958984375,37.0166015625,37.9443359375,40.4345703125,40.8251953125,41.6552734375,42.1435546875,42.6806640625,42.4853515625,42.4853515625,42.7783203125,43.1689453125,43.4130859375,43.4619140625,43.0712890625,41.8994140625,41.1181640625,40.0927734375,39.3115234375,38.7744140625,37.9931640625,37.0166015625,36.6748046875,37.0654296875,37.5537109375,39.1650390625,41.0693359375,41.7529296875,42.3876953125,43.3642578125,43.4130859375,43.4619140625,44.2919921875,44.2431640625,44.0966796875,44.5849609375,44.0966796875,44.4873046875,42.7783203125,42.0947265625,40.2880859375,39.6044921875,39.3603515625,38.6767578125,37.7001953125,37.5048828125,36.9189453125,36.5771484375,36.7236328125,38.1884765625,38.5302734375,40.2880859375,41.2158203125,41.9970703125,41.8994140625,42.0458984375,42.6318359375,42.2412109375,42.1435546875,42.3388671875,42.4853515625,41.7041015625,41.3134765625,40.9716796875,39.5068359375,38.3349609375,37.1630859375,36.7236328125,35.9912109375,35.1611328125,34.0380859375,34.1357421875,34.4775390625,36.1376953125,37.3095703125,37.8466796875,38.2861328125,38.9208984375,39.7998046875,40.2392578125,40.0439453125,40.2880859375,40.0927734375,40.6787109375,40.3857421875,40.1416015625,39.4091796875,38.2861328125,36.9677734375,36.6259765625,36.6259765625,35.2587890625,35.1611328125,34.0380859375,34.1357421875,35.1611328125,36.8212890625,38.1396484375,39.1162109375,39.3115234375,40.6298828125,41.4111328125,41.1669921875,41.4599609375,41.2158203125,41.8505859375,42.0458984375,42.0458984375,42.4853515625,41.2646484375,40.1904296875,38.8720703125,38.3349609375,37.9931640625,37.3583984375,36.9677734375,36.4794921875,35.5029296875,36.4306640625,37.4560546875,38.8720703125,40.1904296875,40.5810546875,41.3134765625,42.8271484375,42.7294921875,42.8759765625,43.3154296875,42.9248046875,43.7548828125,43.8037109375,44.0966796875,43.0712890625,41.8505859375,41.5087890625,40.6787109375,39.7998046875,38.9208984375,38.3349609375,38.2373046875,37.7001953125,36.6748046875,36.4794921875,37.3095703125,38.0908203125,39.7021484375,40.4833984375,41.6064453125,42.2900390625,42.8271484375,42.8759765625,43.9501953125,43.2666015625,43.5107421875,43.0224609375,42.9736328125,43.2666015625,42.1435546875,40.9716796875,39.7021484375,39.2138671875,38.3349609375,37.5537109375,37.4072265625,35.8935546875,35.9912109375,34.4287109375,33.5009765625,34.0869140625,34.4775390625,36.4306640625,37.5048828125,37.7490234375,38.8720703125,39.3603515625,40.0439453125,39.9951171875,40.5322265625,40.0439453125,41.0693359375,40.5322265625,40.4833984375,39.3115234375,38.7744140625,37.3583984375,36.7724609375,36.2353515625,36.0400390625,34.5751953125,34.3310546875,33.9892578125,33.7939453125,34.5263671875,35.9912109375,37.3583984375,37.5537109375,38.8232421875,39.5556640625,39.4580078125,39.8486328125,39.9462890625,40.0927734375,39.9462890625,40.5322265625,40.2880859375,39.5556640625,38.2861328125,37.3583984375,36.1865234375,36.0888671875,35.7470703125,34.2822265625,34.4287109375,35.5517578125,35.9912109375,37.1630859375,38.7255859375,39.1650390625,39.8486328125,40.3369140625,41.0693359375,40.9716796875,41.6064453125,40.7275390625,41.3134765625,40.9716796875,40.5810546875,40.4345703125,39.8974609375,39.2138671875,38.1884765625,36.9677734375,36.3818359375,35.8447265625,35.6494140625,35.0634765625,35.8935546875,36.8701171875,37.6513671875,39.6533203125,39.8486328125,41.0205078125,41.4111328125,41.5576171875,41.8505859375,41.8994140625,41.6552734375,42.2900390625,43.2177734375,42.6318359375,42.2412109375,41.3623046875,41.2646484375,39.5068359375,38.3349609375,38.4326171875,37.5537109375,37.2607421875,36.8701171875,35.1611328125,35.6005859375,35.8935546875,36.4306640625,38.1396484375,38.8720703125,39.1650390625,39.8486328125,40.4833984375,40.2880859375,40.9716796875,40.8740234375,41.4111328125,41.8017578125,41.8017578125,41.3134765625,41.0205078125,39.7509765625,38.2373046875,37.2607421875,36.6748046875
PPG_subj_16,21,F,N,Non-diabetic,105,34.8323,Earlobe,0.185546875,0.185546875,0.185546875,0.185546875,0.185546875,0.185546875,85.3369140625,-41.8994140625,-42.0458984375,-43.4130859375,-43.0224609375,-42.0947265625,-41.0693359375,-39.9951171875,-39.8486328125,-39.0185546875,-38.9208984375,-37.9931640625,-37.8955078125,-38.2861328125,-38.1884765625,-38.0908203125,-38.2373046875,-37.9443359375,-38.2861328125,-38.4814453125,-39.0185546875,-39.0185546875,-40.3369140625,-40.3369140625,-41.2158203125,-39.9462890625,-38.9697265625,-38.0908203125,-37.9443359375,-37.4072265625,-37.3583984375,-36.9189453125,-37.0654296875,-36.9189453125,-36.7236328125,-37.7490234375,-37.7001953125,-37.4560546875,-37.7978515625,-38.1884765625,-39.0673828125,-39.5068359375,-39.3115234375,-40.9228515625,-41.8017578125,-42.4365234375,-42.9248046875,-41.5087890625,-40.4833984375,-39.2138671875,-39.7509765625,-40.0927734375,-39.4580078125,-39.8974609375,-39.7509765625,-39.7998046875,-39.5068359375,-39.4091796875,-39.1650390625,-38.9697265625,-39.9462890625,-40.3857421875,-40.9228515625,-40.5810546875,-41.4111328125,-41.9970703125,-42.9248046875,-42.5341796875,-43.2177734375,-43.4130859375,-41.6064453125,-40.8740234375,-40.2880859375,-39.9462890625,-40.2392578125,-40.2880859375,-40.3369140625,-40.3369140625,-40.8740234375,-40.7275390625,-41.2646484375,-41.4111328125,-41.8505859375,-42.9248046875,-42.9736328125,-43.9013671875,-44.6337890625,-44.8291015625,-45.0732421875,-46.7333984375,-47.2705078125,-48.2958984375,-47.7587890625,-46.8310546875,-46.3427734375,-45.7568359375,-46.1474609375,-46.0986328125,-46.3916015625,-46.6357421875,-46.3427734375,-46.7822265625,-47.2705078125,-47.1240234375,-48.0029296875,-48.9794921875,-49.0771484375,-49.6142578125,-50.6396484375,-51.9091796875,-52.5927734375,-46.8798828125,-45.8056640625,-45.9521484375,-45.2685546875,-43.9013671875,-44.1455078125,-43.9013671875,-43.5107421875,-43.9990234375,-44.6826171875,-44.6337890625,-45.4150390625,-45.2197265625,-45.5615234375,-46.2939453125,-46.5380859375,-47.6611328125,-48.2958984375,-48.7841796875,-49.4677734375,-49.8095703125,-50.5908203125,-51.9580078125,-51.4697265625,-48.8330078125,-48.5888671875,-48.1494140625,-48.3447265625,-48.6376953125,-49.1748046875,-49.3212890625,-49.7607421875,-49.1748046875,-49.1259765625,-49.5166015625,-48.7841796875,-49.4189453125,-50.6884765625,-50.6396484375,-51.4697265625,-51.6650390625,-52.4462890625,-53.0810546875,-51.5673828125,-50.0537109375,-49.0283203125,-49.2236328125,-48.8330078125,-48.1005859375,-48.5888671875,-48.4912109375,-47.5146484375,-47.2216796875,-47.3193359375,-47.6611328125,-48.0029296875,-47.9541015625,-47.6611328125,-48.1005859375,-48.5400390625,-48.3447265625,-48.7841796875,-49.5166015625,-49.3212890625,-48.0029296875,-46.1474609375,-45.5126953125,-44.9755859375,-45.1220703125,-44.7314453125,-44.2431640625,-43.7060546875,-43.2177734375,-42.9736328125,-43.3154296875,-42.9248046875,-42.2900390625,-42.6318359375,-42.2412109375,-43.2177734375,-43.1689453125,-43.6572265625,-44.1943359375,-44.1455078125,-44.1455078125,-44.5849609375,-42.4365234375,-40.8740234375,-39.5556640625,-38.4814453125,-38.0419921875,-37.2119140625,-36.5283203125,-35.7958984375,-35.6005859375,-35.6494140625,-35.3564453125,-34.6240234375,-34.0869140625,-34.2333984375,-34.0869140625,-33.9404296875,-34.1845703125,-33.7451171875,-34.1845703125,-35.1611328125,-35.2099609375,-35.3564453125,-35.8935546875,-35.9912109375,-36.3330078125,-35.4052734375,-33.8427734375,-32.4755859375,-31.7919921875,-30.5712890625,-30.8154296875,-30.2294921875,-29.7900390625,-28.9111328125,-29.0087890625,-28.6669921875,-28.2275390625,-27.6904296875,-27.4951171875,-28.1787109375,-28.4716796875,-28.6669921875,-28.8134765625,-28.5693359375,-29.4970703125,-30.7177734375,-30.2294921875,-31.4990234375,-31.1572265625,-32.3291015625,-31.8896484375,-30.5224609375,-29.5947265625,-28.4228515625,-28.9111328125,-27.8369140625,-27.5439453125,-27.8369140625,-27.9345703125,-27.7392578125,-27.4951171875,-26.9580078125,-27.3974609375,-27.5439453125,-27.6904296875,-27.8369140625,-28.2275390625,-28.5693359375,-28.8623046875,-29.4970703125,-29.7900390625,-30.7666015625,-31.0107421875,-32.7685546875,-32.8173828125,-30.2783203125,-28.9599609375,-29.2529296875,-28.8134765625,-28.5205078125,-28.1298828125,-27.5439453125,-27.8857421875,-28.1298828125,-27.8369140625,-27.3486328125,-27.4462890625,-27.6416015625,-27.2998046875,-27.9833984375,-27.5439453125,-28.6669921875,-29.5458984375,-29.3017578125,-29.9853515625,-30.4248046875,-30.9619140625,-30.4736328125,-28.9599609375,-27.2509765625,-27.3486328125,-27.2021484375,-26.4208984375,-25.6884765625,-24.9072265625,-24.5654296875,-24.8583984375,-24.7607421875,-24.6630859375,-24.7119140625,-24.6630859375,-24.6142578125,-24.3212890625,-25.6884765625,-24.9072265625,-26.5185546875,-26.3720703125,-27.2998046875,-28.2275390625,-28.5205078125,-29.0576171875,-28.4716796875,-27.5439453125,-26.6162109375,-25.8349609375,-25.2001953125,-23.8818359375,-23.6376953125,-24.0771484375,-23.6376953125,-23.8330078125,-23.6865234375,-23.0517578125,-22.7587890625,-23.0517578125,-23.9306640625,-23.3935546875,-23.6376953125,-23.9306640625,-24.5654296875,-25.4931640625,-25.6884765625,-26.2255859375,-27.1533203125,-26.9580078125,-28.5205078125,-29.5947265625,-29.3994140625,-28.4228515625,-26.8115234375,-25.7861328125,-25.9326171875,-26.0302734375,-25.2001953125,-25.1513671875,-24.6630859375,-24.5166015625,-24.3212890625,-24.3701171875,-25.1025390625,-24.3212890625,-24.5654296875,-25.6884765625,-25.5419921875,-25.7861328125,-26.6650390625,-27.2509765625,-27.7880859375,-28.1298828125,-28.8134765625,-29.4482421875,-30.3271484375,-31.2548828125,-31.4013671875,-33.1591796875,-32.7685546875,-31.4990234375,-30.0830078125,-29.2041015625,-29.5947265625,-29.1064453125,-28.6181640625,-27.4951171875,-28.2763671875,-29.1552734375,-28.9599609375,-29.0087890625,-28.9111328125,-28.7646484375,-29.8388671875,-29.8876953125,-30.3759765625,-30.7177734375,-31.9384765625,-31.6943359375,-32.2802734375,-33.0615234375,-34.2333984375,-34.5751953125,-35.2099609375,-36.2353515625,-37.0654296875,-36.9677734375,-34.8193359375,-34.0869140625,-33.9404296875,-33.4033203125,-33.6474609375,-33.1103515625,-33.5498046875,-34.6240234375,-33.6474609375,-34.2333984375,-33.9404296875,-33.9404296875,-34.5263671875,-35.1123046875,-34.9658203125,-35.6005859375,-35.8447265625,-36.5771484375,-36.8212890625,-36.8212890625,-38.2373046875,-39.2626953125,-39.3603515625,-38.6767578125,-36.2841796875,-36.5771484375,-35.7958984375,-35.1611328125,-34.7216796875,-33.9892578125,-34.2822265625,-34.2333984375,-33.7451171875,-33.6962890625,-33.6962890625,-33.4033203125,-33.4521484375,-33.6962890625,-33.6962890625,-34.0869140625,-34.0380859375,-34.8681640625,-35.2587890625,-35.6494140625,-36.4306640625,-35.7470703125,-33.1103515625,-32.6708984375,-31.8896484375,-30.4736328125,-30.4736328125,-29.3994140625,-28.8623046875,-27.9833984375,-27.8369140625,-27.6904296875,-27.5439453125,-26.7138671875,-26.9091796875,-26.6162109375,-27.2998046875,-26.7138671875,-27.3974609375,-27.7880859375,-27.9345703125,-28.3740234375,-28.4716796875,-29.3505859375,-29.3505859375,-29.0576171875,-26.3232421875,-25.7373046875,-24.6142578125,-24.2724609375,-23.1494140625,-22.4658203125,-22.0751953125,-20.8056640625,-20.5615234375,-20.2685546875,-20.2685546875,-20.0732421875,-19.7802734375,-19.5361328125,-19.7802734375,-20.0244140625,-20.1220703125,-20.4638671875,-20.4150390625,-21.3916015625,-21.5869140625,-22.2216796875,-22.3193359375,-22.7099609375,-23.5400390625,-24.7119140625,-24.5654296875,-24.2724609375,-22.7099609375,-21.9775390625,-21.0498046875,-20.3173828125,-19.1455078125,-18.9501953125,-17.7294921875,-17.6806640625,-17.5341796875,-17.2900390625,-17.0947265625,-16.6552734375,-16.3134765625,-17.0458984375,-17.2412109375,-17.3876953125,-17.9736328125,-18.7060546875,-18.4130859375,-19.3408203125,-20.0732421875,-21.3916015625,-21.3427734375,-21.8798828125,-23.1494140625,-23.8330078125,-24.8095703125,-23.4912109375,-22.1240234375,-21.7333984375,-21.3916015625,-20.9521484375,-20.8544921875,-20.4638671875,-20.2685546875,-20.0732421875,-20.5126953125,-20.3662109375,-20.3173828125,-21.2451171875,-21.5380859375,-21.4892578125,-21.6845703125,-23.1494140625,-22.5146484375,-23.3447265625,-24.0771484375,-24.2724609375,-25.9326171875,-25.8349609375,-26.7626953125,-27.0068359375,-26.4697265625,-25.5908203125,-25.3955078125,-25.1513671875,-24.2236328125,-25.2978515625,-24.6630859375,-24.7119140625,-24.9072265625,-25.0537109375,-25.0537109375,-24.8583984375,-25.2490234375,-25.7861328125,-26.1279296875,-26.3232421875,-26.8115234375,-27.4951171875,-28.1787109375,-29.1552734375,-29.3505859375,-30.4248046875,-30.9130859375,-31.1572265625,-31.0595703125,-29.4482421875,-29.3017578125,-29.1552734375,-28.8134765625,-28.8134765625,-27.5439453125,-27.9833984375,-28.1787109375,-28.2763671875,-28.2275390625,-29.0087890625,-28.2275390625,-28.0322265625,-28.4228515625,-29.1552734375,-29.5947265625,-30.5712890625,-30.3759765625,-31.6943359375,-32.3291015625,-32.5244140625,-33.8916015625,-34.5751953125,-34.6240234375,-36.0888671875,-35.6494140625,-35.3076171875,-34.2333984375,-33.8916015625,-33.3544921875,-33.7451171875,-33.3056640625,-32.7685546875,-33.3544921875,-33.8916015625,-33.5009765625,-33.8427734375,-33.8916015625,-34.1845703125,-33.8427734375,-34.3310546875,-34.9169921875,-34.9169921875,-35.5517578125,-36.0400390625,-37.4560546875,-37.0654296875,-37.6513671875,-38.3837890625,-38.8232421875,-39.4091796875,-39.8974609375,-40.8740234375,-41.5087890625,-42.6318359375,-42.2412109375,-41.3623046875,-39.9951171875,-39.8974609375,-40.4833984375,-39.7509765625,-39.3603515625,-39.5556640625,-40.6298828125,-40.4833984375,-40.7275390625,-40.1416015625,-40.0439453125,-40.1904296875,-40.6787109375,-41.0693359375,-41.4111328125,-41.4599609375,-42.5341796875,-43.3642578125,-43.5595703125,-44.2431640625,-44.6826171875,-45.5615234375,-46.7822265625,-47.2216796875,-47.9052734375,-48.3935546875,-48.5888671875,-48.2958984375,-47.2705078125,-46.2451171875,-46.2451171875,-46.2939453125,-46.4892578125,-46.0498046875,-45.9521484375,-46.3427734375,-45.7080078125,-47.0263671875,-46.7822265625,-47.4658203125,-47.0751953125,-47.0751953125,-47.4658203125,-48.6865234375,-48.4912109375,-48.8330078125,-49.6142578125,-50.1025390625,-50.0537109375,-51.2255859375,-51.5673828125,-52.5439453125,-53.2275390625,-53.1298828125,-51.4208984375,-51.0791015625,-50.6396484375,-50.4931640625,-49.8583984375,-49.8583984375,-49.4677734375,-49.5654296875,-49.9560546875,-49.9560546875,-49.1259765625,-49.2724609375,-49.6142578125,-50.0048828125,-49.2724609375,-50.3466796875,-49.8095703125,-50.1025390625,-50.5419921875,-50.4443359375,-50.7861328125,-51.8603515625,-51.3232421875,-51.7626953125,-50.5908203125,-49.2236328125,-48.5888671875,-47.9052734375,-47.6123046875,-46.7822265625,-46.1962890625,-44.8291015625,-45.1220703125,-45.0244140625,-43.9013671875,-43.9013671875,-43.9013671875,-43.3642578125,-42.9248046875,-43.8037109375,-43.5107421875,-43.8037109375,-43.4619140625,-43.3642578125,-43.8525390625,-44.0966796875,-44.4384765625,-44.1455078125,-43.6083984375,-42.0458984375,-40.8740234375,-40.7763671875,-39.2626953125,-37.7978515625,-37.3095703125,-36.3818359375,-36.0888671875,-35.3076171875,-34.4775390625,-34.4287109375,-33.9892578125,-33.6962890625,-33.2080078125,-32.6220703125,-32.3779296875,-32.3291015625,-32.0849609375,-32.4267578125,-32.6708984375,-33.1103515625,-33.1103515625,-33.3056640625,-33.5986328125,-33.6962890625,-33.2568359375,-31.4501953125,-29.6923828125,-29.3994140625,-28.5693359375,-27.9345703125,-26.1767578125,-25.4443359375,-25.1513671875,-23.7841796875,-23.4423828125,-23.1494140625,-21.9775390625,-22.5634765625,-21.5380859375,-22.2216796875,-21.8798828125,-22.2216796875,-22.9052734375,-22.1240234375,-23.7841796875,-23.6376953125,-24.0283203125,-24.0283203125,-24.3212890625,-25.5908203125,-26.1767578125,-25.2978515625,-23.9306640625,-23.1494140625,-21.7822265625,-22.0263671875,-21.4892578125,-19.9267578125,-20.0244140625,-19.5361328125,-18.7548828125,-18.9990234375,-18.4619140625,-18.8037109375,-19.1455078125,-19.4384765625,-19.4384765625,-19.8291015625,-20.2685546875,-20.6591796875,-21.2451171875,-21.6845703125,-21.6845703125,-22.6123046875,-22.9052734375,-23.1494140625,-22.1240234375,-20.4638671875,-20.4150390625,-19.6337890625,-19.2431640625,-18.7060546875,-18.2666015625,-17.9736328125,-17.5341796875,-16.9482421875,-16.7041015625,-17.1435546875,-17.0458984375,-16.8505859375,-18.2177734375,-17.6318359375,-18.3154296875,-19.0966796875,-18.5595703125,-18.9501953125,-19.6826171875,-20.5615234375,-21.1474609375,-21.2451171875,-20.4150390625,-19.2431640625,-18.5595703125,-18.0712890625,-17.5830078125,-16.5576171875,-16.7041015625,-16.6552734375,-16.3134765625,-16.2646484375,-15.6298828125,-16.0693359375,-15.6298828125,-16.5576171875,-16.3134765625,-16.8994140625,-17.4853515625,-17.2900390625,-18.5107421875,-19.2431640625,-19.1943359375,-20.4638671875,-20.7080078125,-21.7333984375,-21.9775390625,-21.0986328125,-20.5615234375,-20.4150390625,-19.2919921875,-19.2919921875,-19.1943359375,-18.6572265625,-17.6806640625,-18.5107421875,-17.9736328125,-18.4619140625,-17.7294921875,-18.7548828125,-18.7060546875,-19.5849609375,-20.3173828125,-20.8544921875,-21.0498046875,-21.7333984375,-22.4658203125,-23.2470703125,-23.8330078125,-24.1259765625,-25.3466796875,-25.7373046875,-27.5439453125,-27.9833984375,-27.3486328125,-26.6162109375,-26.1279296875,-25.5419921875,-25.5908203125,-25.8837890625,-25.5908203125,-25.0048828125,-25.4931640625,-25.4931640625,-25.7861328125,-25.8837890625,-26.4208984375,-26.4208984375,-27.1533203125,-27.5439453125,-28.0810546875,-28.7646484375,-29.2041015625,-30.3271484375,-30.9130859375,-31.1083984375,-32.5732421875,-34.1357421875,-34.1357421875,-35.4541015625,-36.2841796875,-37.0654296875,-37.5537109375,-35.7470703125,-35.9912109375,-35.8935546875,-36.6748046875,-36.1376953125,-35.9423828125,-36.5283203125,-36.7724609375,-37.1630859375,-37.5537109375,-37.4560546875,-37.8466796875,-38.1884765625,-39.1162109375,-39.7021484375,-40.3369140625,-40.6787109375,-41.6552734375,-42.4365234375,-43.3642578125,-44.0966796875,-44.7802734375,-45.7080078125,-46.3427734375,-46.6357421875,-45.0244140625,-44.8779296875,-44.8779296875,-44.9267578125,-45.1220703125,-44.6337890625,-44.9755859375,-44.8779296875,-44.4384765625,-44.9755859375,-45.7568359375,-45.7568359375,-45.6103515625,-46.4892578125,-47.0263671875,-47.0263671875,-47.8564453125,-48.0029296875,-48.4423828125,-48.7353515625,-49.5166015625,-50.2490234375,-50.6884765625,-51.0302734375,-50.5419921875,-49.0283203125,-48.1982421875,-48.2470703125,-48.4912109375,-47.7099609375,-47.3193359375,-47.3193359375,-47.4658203125,-47.0263671875,-47.4169921875,-46.9775390625,-47.1728515625,-47.7099609375,-47.8076171875,-48.2958984375,-48.3935546875,-48.7353515625,-48.8330078125,-49.1748046875,-49.8095703125,-49.8095703125,-50.8837890625,-51.3232421875,-51.8603515625,-51.2255859375,-50.6884765625,-50.2978515625,-49.0771484375,-48.5888671875,-48.3935546875,-47.7099609375,-46.7333984375,-46.7333984375,-46.1962890625,-46.3427734375,-46.1962890625,-45.7568359375,-45.4150390625,-46.0009765625,-45.6591796875,-45.4638671875,-46.4404296875,-46.2939453125,-46.6845703125,-46.5869140625,-47.5634765625,-47.5634765625,-47.3193359375,-47.8076171875,-49.1259765625,-49.3701171875,-49.3701171875,-47.9541015625,-47.0751953125,-46.9287109375,-45.8544921875,-45.5615234375,-45.1708984375,-43.9501953125,-43.3154296875,-43.9501953125,-44.2431640625,-43.4619140625,-43.2177734375,-42.9736328125,-43.1689453125,-43.1201171875,-43.0224609375,-43.3642578125,-43.5595703125,-43.9013671875,-43.8525390625,-43.8525390625,-44.3408203125,-44.4384765625,-44.6826171875,-45.4150390625,-45.8056640625,-44.9267578125,-44.2919921875,-43.3642578125,-42.6806640625,-41.9482421875,-41.7529296875,-41.2158203125,-40.6787109375,-41.4111328125,-39.7021484375,-39.6044921875,-39.8974609375,-39.7509765625,-38.9208984375,-39.2626953125,-39.3603515625,-39.8974609375,-39.7021484375,-40.2392578125,-39.9462890625,-40.5810546875,-40.9716796875,-41.2158203125,-41.1181640625,-40.7275390625,-39.2626953125,-38.1884765625,-37.7001953125,-37.1142578125,-36.3330078125,-35.2099609375,-33.7939453125,-34.2333984375,-33.5009765625,-33.1591796875,-32.9638671875,-32.4267578125,-31.8896484375,-32.2802734375,-32.2314453125,-32.4755859375,-32.6220703125,-32.1337890625,-32.4267578125,-32.6708984375,-33.2080078125,-33.3544921875,-33.6474609375,-33.9404296875,-33.7451171875,-32.7197265625,-31.5478515625,-30.5224609375,-29.8876953125,-29.0576171875,-28.1787109375,-27.2998046875,-27.1044921875,-26.5673828125,-26.0791015625,-25.3955078125,-25.6396484375,-24.6630859375,-24.7119140625,-24.6142578125,-24.8583984375,-24.8095703125,-24.7119140625,-25.2001953125,-25.7373046875,-25.8837890625,-25.8837890625,-26.7626953125,-27.3486328125,-27.7392578125,-27.8369140625,-27.6416015625,-26.1767578125,-25.7373046875,-24.8583984375,-24.5166015625,-23.8330078125,-23.6376953125,-22.6123046875,-23.1005859375,-22.6611328125,-22.8076171875,-22.4658203125,-22.4658203125,-22.3681640625,-22.4658203125,-23.1005859375,-23.3935546875,-23.8818359375,-23.6376953125,-24.3212890625,-25.7861328125,-26.1767578125,-27.0556640625,-26.6162109375,-28.0810546875,-29.0576171875,-29.4482421875,-28.9599609375,-27.8369140625,-27.2509765625,-27.2021484375,-26.8115234375,-26.1767578125,-26.1767578125,-25.9814453125,-25.7373046875,-25.5419921875,-25.8349609375,-26.0791015625,-26.1279296875,-26.4208984375,-26.3720703125,-27.1044921875,-27.2998046875,-27.4951171875,-28.6181640625,-29.5947265625,-29.6435546875,-30.4736328125,-31.0595703125,-31.6943359375,-32.0849609375,-32.0361328125,-30.2294921875,-29.9365234375,-30.2294921875,-29.3994140625,-29.4482421875,-28.7158203125,-29.2529296875,-29.3994140625,-28.7646484375,-29.0576171875,-29.6923828125,-29.1552734375,-28.8134765625,-29.2041015625,-29.4970703125,-30.4248046875,-30.6689453125,-31.4990234375,-32.0361328125,-32.5244140625,-33.0615234375,-33.4521484375,-34.4287109375,-34.0869140625,-33.1591796875,-32.5244140625,-32.4267578125,-31.8896484375,-31.1572265625,-30.7177734375,-29.8876953125,-29.9365234375,-29.5947265625,-29.5947265625,-29.5458984375,-29.5458984375,-29.6435546875,-30.3271484375,-30.8154296875,-30.7666015625,-31.3525390625,-30.8642578125,-32.1337890625,-33.0615234375,-33.2568359375,-33.7939453125,-34.7705078125,-35.0634765625,-36.6748046875,-36.7236328125,-36.1376953125,-34.6240234375,-34.4287109375,-33.6474609375,-33.3056640625,-32.6220703125,-32.4755859375,-31.9873046875,-31.8408203125,-32.1826171875,-32.1337890625,-31.9384765625,-32.0849609375,-32.3291015625,-32.5244140625,-32.1337890625,-32.7685546875,-33.6474609375,-33.2568359375,-33.5986328125,-34.7216796875,-35.0146484375,-35.6494140625,-36.4794921875,-37.5537109375,-37.9443359375,-39.0185546875,-38.8232421875,-38.0908203125,-37.3583984375,-37.1630859375,-36.5283203125,-36.8701171875,-35.5517578125,-36.4306640625,-35.3564453125,-35.9423828125,-36.5283203125,-35.8935546875,-35.5517578125,-35.7470703125,-36.5771484375,-36.0400390625,-36.8701171875,-36.8701171875,-37.2119140625,-38.0419921875,-38.1884765625,-39.0185546875,-39.9951171875,-40.3857421875,-41.4111328125,-41.8994140625,-42.7294921875,-42.0458984375,-41.8017578125,-40.4345703125,-40.4345703125,-40.5322265625,-40.2880859375,-39.9462890625,-39.7998046875,-40.3369140625,-40.2880859375,-40.6787109375,-40.6298828125,-40.7763671875,-41.6064453125,-41.2646484375,-41.0693359375,-42.0947265625,-42.1435546875,-42.7783203125,-42.3388671875,-43.2177734375,-44.0478515625,-44.6337890625,-45.3662109375,-44.5361328125,-43.8037109375,-42.8759765625,-42.2900390625,-42.3388671875,-41.0205078125,-40.7275390625,-40.4345703125,-40.7275390625,-40.2392578125,-39.8486328125,-40.3369140625,-39.8486328125,-39.7021484375,-39.7021484375,-40.3369140625,-39.8486328125,-40.9228515625,-40.9228515625,-40.6787109375,-41.6552734375,-42.1923828125,-42.2900390625,-42.5341796875,-41.9970703125,-40.7763671875,-40.6298828125,-39.4580078125,-39.0673828125,-37.9443359375,-37.7490234375,-36.8212890625,-36.9677734375,-37.0654296875,-36.2353515625,-36.0400390625,-35.6494140625,-35.7958984375,-35.6005859375,-35.9912109375,-35.4541015625,-36.3330078125,-36.2353515625,-36.5283203125,-37.5048828125,-37.2119140625,-37.4560546875,-38.3349609375,-38.0908203125,-36.8212890625,-36.1376953125,-36.1865234375,-35.2099609375,-34.6728515625,-33.3056640625,-33.4521484375,-32.8662109375,-32.7685546875,-32.0849609375,-31.5478515625,-31.7919921875,-31.6943359375,-32.0361328125,-31.6455078125,-31.6943359375,-33.0615234375,-33.0126953125,-32.8662109375,-33.9404296875,-33.8916015625,-34.9169921875,-35.3564453125,-35.9912109375,-35.9912109375,-37.0654296875,-37.5537109375,-36.7236328125,-36.1865234375,-35.1611328125,-35.1611328125,-34.6728515625,-34.5263671875,-34.3310546875,-33.8916015625,-34.2822265625,-33.3056640625,-33.4521484375,-33.9404296875,-33.5986328125,-33.9892578125,-34.1845703125,-34.9169921875,-34.5263671875,-35.6982421875,-35.7470703125,-35.8447265625,-36.6748046875,-37.1630859375,-38.3837890625,-38.2861328125,-39.2626953125,-39.1162109375,-37.6025390625,-36.5283203125,-36.5283203125,-36.6259765625,-36.2841796875,-35.6494140625,-35.8447265625,-35.1123046875,-34.7216796875,-35.5517578125,-34.6240234375,-35.3076171875,-34.8193359375,-35.2587890625,-35.2099609375,-35.6982421875,-36.0400390625,-36.6259765625,-36.4306640625,-37.1630859375,-38.3349609375,-38.1884765625,-38.5791015625,-39.4580078125,-37.8466796875,-37.5537109375,-37.0166015625,-36.2353515625,-34.9169921875,-35.4052734375,-34.9169921875,-34.3310546875,-33.9892578125,-33.4521484375,-33.3544921875,-33.5498046875,-33.6962890625,-34.3310546875,-34.1357421875,-34.3310546875,-34.3310546875,-35.1123046875,-35.3076171875,-36.2841796875,-36.5771484375,-37.4560546875,-37.2607421875,-37.3095703125,-38.8720703125,-39.5556640625,-38.9208984375,-37.6513671875,-36.7236328125,-36.7236328125,-36.3330078125,-36.2353515625,-35.4052734375,-34.8681640625,-34.6240234375,-34.8681640625,-35.0634765625,-35.0634765625,-35.1611328125,-34.8193359375,-35.3076171875,-36.0400390625,-35.3564453125,-35.9423828125,-36.4306640625,-36.4794921875,-37.6513671875,-37.6025390625,-38.7744140625,-39.0673828125,-39.8486328125,-40.8251953125,-41.5087890625,-41.9970703125,-41.5576171875,-40.8740234375,-40.2880859375,-39.7021484375,-39.0673828125,-38.9697265625,-38.5302734375,-38.4326171875,-39.4580078125,-39.2138671875,-38.7744140625,-38.7744140625,-38.6767578125,-39.0185546875,-39.2138671875,-39.5068359375,-39.6044921875,-40.6298828125,-41.5576171875,-42.1923828125,-42.2900390625,-42.7294921875,-43.9501953125,-44.8291015625,-45.6103515625,-46.0986328125,-46.6845703125,-47.2216796875,-45.9033203125,-44.8291015625,-45.0244140625,-44.3896484375,-44.3408203125,-44.2919921875,-44.2919921875,-43.6083984375,-44.4384765625,-44.1943359375,-44.3896484375,-44.5361328125,-44.5361328125,-44.5849609375,-45.0732421875,-45.0732421875,-45.7080078125,-45.9521484375,-46.7822265625,-47.0751953125,-47.8564453125,-48.1005859375,-48.3935546875,-49.1748046875,-49.5166015625,-48.7841796875,-47.5146484375,-46.8310546875,-46.5380859375,-45.6591796875,-45.9033203125,-45.2685546875,-44.4873046875,-44.8779296875,-44.6337890625,-44.7314453125,-44.0966796875,-43.7060546875,-43.8525390625,-43.8525390625,-43.9501953125,-44.9267578125,-44.3896484375,-44.9755859375,-44.8779296875,-45.9033203125,-46.5869140625,-46.7822265625,-47.2705078125,-48.2958984375,-47.1728515625,-45.8544921875,-44.6337890625,-44.2431640625,-43.5107421875,-42.8759765625,-41.8017578125,-41.7529296875,-41.0205078125,-40.7763671875,-39.9951171875,-39.8974609375,-39.7998046875,-39.8486328125,-38.9697265625,-39.4580078125,-39.5068359375,-39.6533203125,-39.7509765625,-39.9462890625,-39.8486328125,-41.4111328125,-41.7041015625,-41.5087890625,-41.9482421875,-42.3876953125,-41.8017578125,-40.8251953125,-39.1650390625,-38.6279296875,-38.2861328125,-37.9931640625,-37.1142578125,-36.7724609375,-36.1376953125,-35.8935546875,-35.9423828125,-35.7958984375,-35.6494140625,-35.3564453125,-35.2099609375,-35.1611328125,-35.0634765625,-35.4052734375,-35.7470703125,-36.2353515625,-36.2353515625,-36.6259765625,-37.7490234375,-37.8466796875,-38.2861328125,-39.1650390625,-39.4580078125,-38.9208984375,-37.0654296875,-35.9423828125,-36.1865234375,-35.5517578125,-34.5263671875,-34.4287109375,-34.1357421875,-34.0869140625,-33.4033203125,-33.2080078125,-33.5986328125,-33.5498046875,-33.1591796875,-33.4521484375,-33.6474609375,-34.3798828125,-34.1357421875,-34.7216796875,-34.9658203125,-34.9658203125,-35.4541015625,-36.8212890625,-37.1142578125,-36.7724609375,-35.7470703125,-34.6728515625,-33.9892578125,-33.5498046875,-33.0126953125,-32.7197265625,-31.8408203125,-31.2060546875,-30.8154296875,-31.4501953125,-30.9619140625,-31.1572265625,-30.8642578125,-30.4248046875,-30.5712890625,-31.2548828125,-31.7919921875,-32.0849609375,-32.5732421875,-32.6220703125,-33.5986328125,-33.6474609375,-33.8427734375,-34.1845703125,-33.2568359375,-32.0849609375,-31.1572265625,-30.8154296875,-30.0341796875,-29.7900390625,-29.3994140625,-28.9599609375,-28.3740234375,-28.6181640625,-28.4716796875,-29.0576171875,-28.3740234375,-28.8134765625,-28.5205078125,-28.9111328125,-29.0087890625,-29.6923828125,-30.0341796875,-30.7666015625,-31.7919921875,-31.7431640625,-32.2802734375,-33.0126953125,-33.6474609375,-33.9404296875,-33.0126953125,-31.8896484375,-31.4013671875,-31.1083984375,-30.4248046875,-30.4248046875,-29.6435546875,-30.4736328125,-29.6435546875,-29.7412109375,-29.3994140625,-29.9853515625,-29.4970703125,-30.4736328125,-30.0341796875,-30.8642578125,-31.3037109375,-32.0849609375,-32.7685546875,-33.5009765625,-34.5263671875,-35.3564453125,-35.7470703125,-36.2353515625,-36.9189453125,-38.4326171875,-39.8486328125,-39.4580078125,-37.4560546875,-37.7490234375,-37.5048828125,-36.6748046875,-37.7490234375,-37.0654296875,-37.3095703125,-37.8466796875,-37.3095703125,-37.5048828125,-38.2373046875,-38.5791015625,-39.1162109375,-38.7255859375,-40.0927734375,-40.4345703125,-40.6787109375,-41.6552734375,-43.2177734375,-42.7294921875,-43.8525390625,-44.2431640625,-45.2685546875,-46.3427734375,-46.7333984375,-46.5380859375,-45.4150390625,-45.1220703125,-44.7802734375,-44.9755859375,-44.3408203125,-44.5361328125,-44.3408203125,-45.2197265625,-45.3173828125,-45.3173828125,-45.1220703125,-45.7568359375,-46.1474609375,-46.4892578125,-46.5380859375,-47.3193359375,-47.2216796875,-47.7587890625,-48.6865234375,-48.9794921875,-49.4677734375,-50.5419921875,-50.5908203125,-50.8349609375,-50.2001953125,-49.3212890625,-48.9306640625,-48.4423828125,-48.1494140625,-48.1005859375,-48.2958984375,-47.9541015625,-48.0517578125,-48.0029296875,-48.1494140625,-47.8564453125,-47.9052734375,-48.5888671875,-48.7353515625,-49.6142578125,-49.3701171875,-50.4443359375,-49.8583984375,-51.2255859375,-51.2744140625,-52.2021484375,-52.5927734375,-53.2763671875,-53.8134765625,-52.4462890625,-51.5185546875,-50.7861328125,-50.7373046875,-50.3466796875,-49.5166015625,-48.8330078125,-49.5166015625,-49.0283203125,-48.7841796875,-49.5654296875,-49.2236328125,-48.8330078125,-48.6376953125,-49.3212890625,-49.2236328125,-49.5166015625,-50.2978515625,-50.0048828125,-51.4697265625,-51.4208984375,-51.8603515625,-52.2998046875,-52.9833984375,-53.8134765625,-53.9599609375,-53.2763671875,-52.0068359375,-50.6884765625,-50.7373046875,-50.3955078125,-50.2490234375,-50.2978515625,-49.8583984375,-48.8330078125,-49.2236328125,-49.3701171875,-49.3212890625,-49.5654296875,-49.2724609375,-49.1259765625,-49.6630859375,-50.1025390625,-50.3466796875,-50.8349609375,-51.4697265625,-52.0068359375,-52.2509765625,-52.9833984375,-53.0810546875,-53.9599609375,-54.3505859375,-52.5439453125,-51.7138671875,-51.1767578125,-50.5908203125,-50.0048828125,-50.0048828125,-49.7607421875,-49.8095703125,-49.7119140625,-49.2236328125,-49.2236328125,-49.1748046875,-49.0283203125,-49.0771484375,-49.4189453125,-49.7607421875,-50.3466796875,-50.2001953125,-50.5419921875,-51.0791015625,-51.9580078125,-51.4697265625,-52.8857421875,-53.0810546875,-51.9091796875,-50.2490234375,-49.2724609375,-48.9794921875,-48.5888671875,-47.2705078125,-47.0751953125,-46.9287109375,-46.4892578125,-46.3916015625,-45.8544921875,-44.5849609375,-45.0732421875,-45.4150390625,-44.6826171875,-45.6591796875,-45.1220703125,-45.5615234375,-46.1962890625,-46.1962890625,-46.2939453125,-46.7333984375,-47.1240234375,-47.6123046875,-47.2705078125,-45.6103515625,-44.3896484375,-43.0712890625,-42.5341796875,-41.9482421875,-41.5576171875,-39.8486328125,-39.9462890625,-39.7021484375,-38.9208984375,-38.9208984375,-38.3837890625,-38.0419921875,-37.8955078125,-38.3837890625,-38.2861328125,-38.5791015625,-38.0908203125,-38.6767578125,-39.3603515625,-38.8720703125,-40.1416015625,-39.6044921875,-41.1669921875,-41.2158203125,-40.6298828125,-39.3603515625,-38.4326171875,-37.1630859375,-36.8212890625,-36.0888671875,-35.4541015625,-35.0634765625,-34.7216796875,-34.2822265625,-33.9892578125,-34.0869140625,-33.9404296875,-33.9404296875,-33.9892578125,-34.3310546875,-34.3310546875,-35.2099609375,-34.8681640625,-36.0888671875,-36.5771484375,-36.7724609375,-37.5048828125,-37.4072265625,-38.4814453125,-40.0927734375,-39.8486328125,-39.0185546875,-36.9189453125,-37.0166015625,-35.9423828125,-36.1376953125,-35.3564453125,-35.2099609375,-35.4052734375,-34.9658203125,-35.3564453125,-34.8193359375,-35.2587890625,-35.1123046875,-35.6494140625,-36.3818359375,-35.3564453125,-36.3818359375,-37.2119140625,-37.3583984375,-37.7978515625,-38.6767578125,-39.1650390625,-39.8974609375,-40.2880859375,-39.9951171875,-38.1396484375,-37.4072265625,-37.0166015625,-36.6748046875,-36.0888671875,-36.0888671875,-35.6494140625,-35.3564453125,-36.2353515625,-35.4541015625,-35.6005859375,-35.8935546875,-35.6005859375,-35.5517578125,-35.9912109375,-36.6748046875,-36.3330078125,-35.7470703125,-37.1142578125,-37.3095703125,-37.5537109375,-38.0419921875,-38.3349609375,-37.8466796875,-35.6982421875,-34.7216796875,-34.9658203125,-34.5263671875,-33.3544921875,-33.3056640625,-32.7197265625,-32.3291015625,-32.5244140625,-32.0849609375,-32.3779296875,-32.4755859375,-32.5244140625,-31.9384765625,-33.0615234375,-33.1591796875,-33.5009765625,-33.3056640625,-33.9404296875,-34.7216796875,-35.7958984375,-36.0888671875,-35.9423828125,-34.4775390625,-33.7451171875,-32.5244140625,-32.4267578125,-32.1826171875,-31.2548828125,-30.2294921875,-30.3759765625,-29.9853515625,-29.7900390625,-30.5224609375,-29.4970703125,-29.8876953125,-29.7412109375,-30.4248046875,-30.0830078125,-31.1083984375,-31.7431640625,-31.8408203125,-32.9150390625,-33.3544921875,-34.5751953125,-34.6728515625,-34.4287109375,-36.3330078125,-36.6259765625,-34.4775390625,-34.1845703125,-33.4521484375,-33.0126953125,-32.8662109375,-32.1826171875,-32.2314453125,-32.7197265625,-32.6220703125,-32.9150390625,-32.9150390625,-32.6220703125,-33.0126953125,-32.8173828125,-34.1357421875,-34.5751953125,-34.8681640625,-35.3564453125,-36.1865234375,-36.8701171875,-37.4560546875,-37.9443359375,-38.8720703125,-39.4580078125,-40.5322265625,-38.9208984375,-37.8955078125,-37.2607421875,-37.1142578125,-37.0654296875,-36.8701171875,-36.6259765625,-36.9189453125,-37.0654296875,-36.9189453125,-36.5771484375,-37.6513671875,-37.4072265625,-36.8212890625,-38.5302734375,-38.5791015625,-39.1162109375,-39.5068359375,-39.7998046875,-41.1669921875,-41.3134765625,-42.4853515625,-42.1435546875,-41.2646484375,-40.6298828125,-39.1162109375,-38.8232421875,-38.6767578125,-37.8955078125,-37.1630859375,-37.1142578125,-37.7001953125,-37.3583984375,-36.9677734375,-36.8701171875,-37.5537109375,-37.4072265625,-37.9931640625,-37.4072265625,-38.6767578125,-38.9697265625,-38.8232421875,-39.7509765625,-39.9462890625,-41.0205078125,-41.4599609375,-41.6552734375,-39.9951171875,-38.9697265625,-37.9443359375,-37.8955078125,-36.9677734375,-36.9189453125,-36.8701171875,-35.6494140625,-36.0888671875,-36.3330078125,-35.1123046875,-35.5517578125,-34.9169921875,-35.8447265625,-36.1865234375,-35.9423828125,-36.6259765625,-37.0654296875,-37.6025390625,-37.7978515625,-38.0908203125,-39.4580078125,-39.5556640625,-40.3369140625,-40.1416015625,-39.0673828125,-37.9443359375,-36.9189453125,-36.1865234375,-35.8935546875,-35.1611328125,-35.1123046875,-34.7705078125,-34.3310546875,-33.9892578125,-34.3798828125,-34.4775390625,-34.8681640625,-34.6240234375,-35.2587890625,-35.2587890625,-35.7958984375,-36.5771484375,-37.2119140625,-37.8466796875,-38.1396484375,-38.8232421875,-39.6533203125,-40.1416015625,-40.9716796875,-41.8994140625,-40.9228515625,-39.7998046875,-38.3837890625,-38.4326171875,-37.7490234375,-37.5537109375,-37.5048828125,-37.1630859375,-37.5048828125,-37.0166015625,-37.7490234375,-37.5048828125,-37.9443359375,-38.4814453125,-38.5302734375,-38.2861328125,-39.0673828125,-39.5556640625,-40.7763671875,-40.6787109375,-41.5576171875,-42.4365234375,-42.4853515625,-43.2177734375,-43.9013671875,-41.3623046875,-40.7763671875,-40.3857421875,-39.7509765625,-39.2626953125,-38.6279296875,-38.8232421875,-38.8232421875,-38.7744140625,-37.9931640625,-38.8720703125,-38.6279296875,-38.9697265625,-38.8232421875,-38.7255859375,-39.5556640625,-39.8974609375,-40.2880859375,-41.0693359375,-41.0205078125,-41.4599609375,-42.2412109375,-43.0712890625,-42.1923828125,-39.8974609375,-38.7744140625,-38.0419921875,-37.5048828125,-36.9677734375,-36.5771484375,-36.2841796875,-36.3330078125,-35.7958984375,-35.3076171875,-34.8681640625,-35.0634765625,-35.7470703125,-35.6982421875,-36.1376953125,-37.1630859375,-37.2119140625,-37.7001953125,-38.2373046875,-38.6279296875,-38.8720703125,-39.7509765625,-40.1904296875,-38.9208984375,-37.6025390625,-36.3330078125,-35.7958984375,-35.3564453125,-34.5263671875,-34.2333984375,-34.6240234375,-33.8916015625,-33.4521484375,-33.1591796875,-33.5498046875,-33.0126953125,-32.9150390625,-33.5009765625,-33.6474609375,-33.6962890625,-34.5263671875,-34.9169921875,-35.7470703125,-35.8935546875,-36.8701171875,-37.0166015625,-37.6025390625,-38.7255859375,-37.6513671875,-36.6259765625,-35.2587890625,-35.2099609375,-34.3798828125,-34.1845703125,-33.4033203125,-34.2822265625,-33.8916015625,-33.2568359375,-33.9892578125,-33.3056640625,-33.6962890625,-33.9892578125,-34.2333984375,-34.4287109375,-35.0146484375,-35.6494140625,-35.9912109375,-36.8212890625,-37.6513671875,-38.5302734375,-38.9697265625,-39.9462890625,-39.9951171875,-38.3349609375,-37.3583984375,-37.2607421875,-36.9677734375,-37.0166015625,-36.4794921875,-36.0400390625,-36.4306640625,-36.3330078125,-36.8701171875,-37.2119140625,-36.9677734375,-37.5048828125,-37.6025390625,-38.3837890625,-38.6767578125,-38.6279296875,-39.8486328125,-40.6787109375,-41.1669921875,-42.1923828125,-42.8759765625,-42.4853515625,-40.1416015625,-39.5068359375,-39.0673828125,-38.7255859375,-38.3349609375,-37.7978515625,-38.0419921875,-37.9443359375,-37.9443359375,-37.6025390625,-37.5048828125,-38.1884765625,-38.1396484375,-38.5791015625,-38.9208984375,-38.6767578125,-39.6533203125,-40.1416015625,-41.5087890625,-41.6552734375,-42.4365234375,-42.2900390625,-40.0927734375,-39.7998046875,-38.3349609375,-38.0419921875,-37.2607421875,-37.2607421875,-36.4794921875,-36.6748046875,-36.1376953125,-35.9423828125,-35.5029296875,-35.7470703125,-35.4541015625,-35.9423828125,-36.1376953125,-36.9189453125,-37.3583984375,-37.3583984375,-38.2373046875,-38.5302734375,-39.3115234375,-39.9462890625,-40.5322265625,-39.0673828125,-38.0419921875,-37.7001953125,-36.6748046875,-36.1865234375,-35.7470703125,-34.8681640625,-34.7705078125,-35.0146484375,-34.8681640625,-34.3798828125,-34.3798828125,-35.3564453125,-35.3564453125,-35.2099609375,-36.5283203125,-36.4794921875,-37.1142578125,-37.7978515625,-38.0419921875,-39.1162109375,-39.6533203125,-40.5810546875,-41.1181640625,-42.2412109375,-41.6552734375,-40.2392578125,-39.1162109375,-38.5791015625,-38.2373046875,-38.8232421875,-38.8232421875,-38.6767578125,-38.2861328125,-38.6279296875,-39.2138671875,-38.5302734375,-39.3603515625,-39.8486328125,-39.8486328125,-41.2646484375,-41.1669921875,-41.7041015625,-43.1201171875,-43.0224609375,-43.9990234375,-45.0244140625,-45.3662109375,-46.6845703125,-46.9287109375,-46.8798828125,-45.6103515625,-44.4873046875,-43.9501953125,-43.9990234375,-43.4130859375,-43.5595703125,-42.6806640625,-43.4130859375,-43.7548828125,-43.7060546875,-43.6572265625,-44.4384765625,-43.8037109375,-44.4384765625,-44.9267578125,-45.3173828125,-45.5126953125,-46.4892578125,-46.9287109375,-47.7099609375,-48.4423828125,-49.0771484375,-49.4677734375,-49.5654296875,-47.3193359375,-46.1962890625,-46.4404296875,-45.7568359375,-44.9755859375,-45.0244140625,-44.7802734375,-44.5361328125,-44.5361328125,-44.5849609375,-44.6337890625,-44.6337890625,-44.6337890625,-44.8779296875,-45.2197265625,-45.2197265625,-46.1474609375,-46.3427734375,-46.9775390625,-47.4658203125,-48.5400390625,-49.1259765625,-49.7607421875,-48.9794921875,-48.1494140625,-46.2939453125,-45.9033203125,-45.9033203125,-45.8056640625,-45.3173828125,-45.4638671875,-44.6826171875,-44.5849609375,-45.2685546875,-43.9501953125,-44.6826171875,-44.5849609375,-45.0732421875,-45.9033203125,-45.9033203125,-46.1474609375,-46.2939453125,-46.5380859375,-48.1005859375,-47.9541015625,-48.9794921875,-48.6865234375,-50.0537109375,-50.4931640625,-49.4189453125,-48.1005859375,-47.6611328125,-47.2216796875,-46.4404296875,-45.6103515625,-46.1474609375,-45.0732421875,-45.1220703125,-45.4150390625,-45.6103515625,-45.4638671875,-45.4150390625,-45.9521484375,-46.4404296875,-46.9287109375,-47.3681640625,-47.1728515625,-48.0517578125,-48.6376953125,-49.2724609375,-49.8095703125,-49.9560546875,-51.2744140625,-52.0068359375,-51.5673828125,-50.6884765625,-49.1748046875,-49.7119140625,-49.1259765625,-49.5654296875,-48.3447265625,-48.8330078125,-48.2470703125,-48.7353515625,-48.3447265625,-48.2470703125,-48.4423828125,-48.7841796875,-48.4912109375,-49.4189453125,-50.3466796875,-50.1025390625,-50.6396484375,-50.8837890625,-51.1767578125,-51.9580078125,-52.8369140625,-54.0087890625,-54.1552734375,-51.7626953125,-51.0791015625,-50.5908203125,-50.3955078125,-49.9560546875,-49.4189453125,-49.3212890625,-48.5400390625,-49.3212890625,-48.4912109375,-48.2958984375,-48.1982421875,-48.5888671875,-48.6376953125,-48.5400390625,-49.7119140625,-50.0537109375,-50.1025390625,-50.9326171875,-51.1279296875,-51.6650390625,-52.1044921875,-52.8857421875,-53.0322265625,-52.1044921875,-50.4931640625,-50.0537109375,-50.1513671875,-49.1748046875,-47.4658203125,-48.1494140625,-48.0029296875,-47.8076171875,-47.9052734375,-47.4169921875,-47.7587890625,-47.5634765625,-48.2958984375,-48.0029296875,-48.1982421875,-48.3935546875,-49.1748046875,-49.3212890625,-49.6142578125,-50.7373046875,-51.2744140625,-52.3486328125,-52.4462890625,-53.4228515625,-52.4951171875,-51.3720703125,-49.9560546875,-50.2001953125,-49.7119140625,-48.7841796875,-48.3935546875,-48.4423828125,-48.0517578125,-47.9052734375,-47.7587890625,-47.6611328125,-48.0517578125,-47.9541015625,-48.5400390625,-48.3935546875,-48.9794921875,-49.8095703125,-49.7119140625,-50.1025390625,-51.0791015625,-51.3720703125,-52.5927734375,-52.7880859375,-53.6181640625,-54.7412109375,-54.5458984375,-53.1787109375,-52.0556640625,-51.6162109375,-51.2255859375,-50.6396484375,-50.8349609375,-50.3955078125,-50.5419921875,-50.6884765625,-50.7861328125,-50.7373046875,-50.8349609375,-51.4697265625,-51.4208984375,-51.6162109375,-52.3486328125,-53.1298828125,-53.3251953125,-53.5693359375,-54.4970703125,-54.9853515625,-55.5224609375,-56.1083984375,-57.1826171875,-56.1572265625,-54.9365234375,-54.3505859375,-53.7646484375,-53.9599609375,-53.0322265625,-52.5439453125,-52.2021484375,-52.2509765625,-52.5439453125,-51.4697265625,-52.0068359375,-51.5673828125,-52.7392578125,-51.9091796875,-52.9833984375,-52.5927734375,-53.3740234375,-52.9345703125,-53.7158203125,-54.4970703125,-55.2783203125,-55.4248046875,-54.7900390625,-53.5693359375,-52.1533203125,-51.0302734375,-49.7607421875,-50.1025390625,-49.1748046875,-48.9306640625,-48.6865234375,-48.2470703125,-47.9541015625,-47.7099609375,-47.9541015625,-47.7099609375,-47.4169921875,-47.7099609375,-47.7587890625,-48.1494140625,-48.7353515625,-49.0771484375,-49.6630859375,-49.8095703125,-50.3955078125,-50.5419921875,-50.6396484375,-49.6142578125,-47.9052734375,-46.8798828125,-46.4404296875,-45.2685546875,-45.3173828125,-44.2919921875,-44.1455078125,-43.6572265625,-43.9990234375,-43.0712890625,-43.3154296875,-42.6318359375,-42.8759765625,-43.2177734375,-43.0224609375,-43.7548828125,-43.6083984375,-44.2919921875,-44.9267578125,-45.4150390625,-45.7080078125,-46.5869140625,-46.7822265625,-47.4658203125,-46.7333984375,-44.9755859375,-44.4384765625,-43.0224609375,-42.8271484375,-41.9482421875,-41.7529296875,-41.9482421875,-41.2158203125,-40.3369140625,-40.4833984375,-41.3623046875,-41.7529296875,-40.6298828125,-41.0205078125,-41.1181640625,-42.3388671875,-42.7783203125,-43.4619140625,-42.6806640625,-44.4384765625,-45.1708984375,-45.3173828125,-46.0986328125,-46.4892578125,-47.6123046875,-46.3916015625,-44.3896484375,-43.3642578125,-42.7783203125,-43.0224609375,-43.1689453125,-42.0458984375,-41.8505859375,-41.6064453125,-41.9482421875,-41.8505859375,-41.9970703125,-42.4853515625,-42.0947265625,-42.1435546875,-43.0224609375,-43.4130859375,-43.4619140625,-44.6337890625,-44.7802734375,-46.1474609375,-45.9033203125,-47.1728515625,-47.3681640625,-46.0009765625,-44.3896484375,-43.5595703125,-43.5595703125,-43.5107421875,-42.2412109375,-42.1435546875,-42.0458984375,-41.9482421875,-41.5576171875,-41.6064453125,-41.4111328125,-41.2158203125,-41.6064453125,-41.4111328125,-41.9482421875,-42.3388671875,-42.8271484375,-43.6572265625,-44.5361328125,-44.6826171875,-45.3173828125,-45.5126953125,-43.6572265625,-42.8271484375,-41.7041015625,-41.3623046875,-40.1416015625,-39.6044921875,-39.1650390625,-38.7744140625,-38.6767578125,-38.2373046875,-37.6025390625,-37.9443359375,-37.7978515625,-38.1884765625,-37.8955078125,-38.9208984375,-38.7255859375,-39.2138671875,-39.8974609375,-41.2646484375,-41.9970703125,-42.7783203125,-43.3154296875,-43.3642578125,-41.9482421875,-40.0439453125,-40.0439453125,-38.1396484375,-38.1396484375,-37.6513671875,-36.8701171875,-36.2353515625,-36.4306640625,-36.6748046875,-36.4306640625,-36.4794921875,-36.4794921875,-36.5283203125,-36.0400390625,-37.1630859375,-37.3095703125,-38.0419921875,-39.0673828125,-39.5068359375,-39.9462890625,-40.6298828125,-41.4599609375,-42.2900390625,-43.0712890625,-43.8525390625,-43.6083984375,-42.1923828125,-41.3623046875,-40.2880859375,-39.8486328125,-39.8974609375,-39.4091796875,-38.8232421875,-38.7255859375,-39.1162109375,-38.8232421875,-39.1650390625,-39.0673828125,-39.4580078125,-39.8486328125,-40.2392578125,-40.8251953125,-41.5576171875,-42.1923828125,-42.8271484375,-43.3154296875,-43.8037109375,-45.2197265625,-46.4404296875,-47.1728515625,-45.8056640625,-44.5361328125,-43.6572265625,-42.7783203125,-43.2177734375,-42.7294921875,-42.7783203125,-42.2412109375,-42.6806640625,-42.7294921875,-43.4130859375,-42.9736328125,-43.6572265625,-42.9248046875,-44.2919921875,-44.0966796875,-44.6826171875,-45.2197265625,-46.0498046875,-46.1474609375,-47.8076171875,-48.2470703125,-48.8330078125,-46.3916015625,-45.4150390625,-44.8291015625,-44.4873046875,-44.1455078125,-44.2919921875,-43.3154296875,-42.8759765625,-42.9248046875,-43.4130859375,-42.8759765625,-43.1201171875,-43.3154296875,-43.4130859375,-43.0224609375,-44.0478515625,-43.8525390625,-44.7314453125,-45.3173828125,-45.5615234375,-46.0009765625,-46.9287109375,-48.1005859375,-46.7822265625,-44.6337890625,-44.0966796875,-43.3642578125,-42.1923828125,-42.2900390625,-41.8505859375,-41.4599609375,-41.4111328125,-41.1181640625,-40.7763671875,-40.7763671875,-41.1181640625,-41.3623046875,-41.1181640625,-41.2646484375,-41.7529296875,-42.1923828125,-42.7294921875,-43.8525390625,-44.3408203125,-44.9755859375,-45.7568359375,-45.8544921875,-46.7333984375,-44.6337890625,-43.6083984375,-42.7783203125,-42.5830078125,-41.9482421875,-41.9482421875,-41.5087890625,-41.6552734375,-41.1669921875,-40.7763671875,-41.2158203125,-40.7763671875,-41.0205078125,-41.3623046875,-41.8994140625,-42.3388671875,-42.6318359375,-43.5107421875,-43.3154296875,-44.7802734375,-45.3662109375,-45.9033203125,-46.8798828125,-47.5634765625,-46.9775390625,-46.1474609375,-44.7802734375,-44.2919921875,-44.2431640625,-44.0966796875,-43.6572265625,-43.4619140625,-43.7060546875,-43.6083984375,-44.1455078125,-43.7548828125,-42.9248046875,-44.4384765625,-45.1220703125,-46.0009765625,-45.9521484375,-45.9521484375,-47.1240234375,-46.9287109375,-48.1982421875,-48.9306640625,-49.5166015625,-49.2236328125,-48.0029296875,-46.6357421875,-45.7080078125,-45.8544921875,-44.7802734375,-45.0244140625,-44.3896484375,-44.1455078125,-44.5361328125,-44.3408203125,-43.9990234375,-44.0478515625,-44.1943359375,-45.1708984375,-45.0732421875,-45.6591796875,-45.7080078125,-45.9033203125,-46.0498046875,-46.9287109375,-47.7587890625,-48.2958984375,-47.6123046875,-46.6357421875,-45.4638671875,-44.7802734375,-43.7060546875,-43.2666015625,-43.0224609375,-42.1435546875,-41.9970703125,-42.0947265625,-41.6064453125,-41.7041015625,-42.1923828125,-41.7041015625,-42.0947265625,-41.9482421875,-42.8759765625,-42.7294921875,-43.1689453125,-44.0478515625,-44.9267578125,-45.3173828125,-45.6591796875,-46.1474609375,-47.6611328125,-46.8310546875,-44.4873046875,-43.2666015625,-43.4130859375,-42.6806640625,-42.2412109375,-41.2646484375,-41.8017578125,-40.9716796875,-40.8251953125,-40.9716796875,-40.6787109375,-40.7275390625,-41.6552734375,-41.2158203125,-41.3623046875,-41.9970703125,-42.1435546875,-43.7060546875,-43.5595703125,-44.3408203125,-45.1220703125,-46.3427734375,-46.7333984375,-47.1728515625,-46.8798828125,-45.3173828125,-44.2431640625,-43.9013671875,-43.1201171875,-42.7783203125,-42.4365234375,-42.4853515625,-41.8994140625,-42.5341796875,-41.8505859375,-42.0458984375,-42.3876953125,-42.5341796875,-43.2177734375,-43.6572265625,-44.5849609375,-44.6337890625,-45.1220703125,-45.7568359375,-47.0751953125,-47.5146484375,-48.0029296875,-48.5888671875,-48.5888671875,-47.2216796875,-46.0986328125,-45.8056640625,-45.2685546875,-44.8779296875,-44.3408203125,-44.8291015625,-44.3408203125,-45.2197265625,-44.5361328125,-44.6337890625,-44.4384765625,-45.2197265625,-45.5126953125,-46.0009765625,-46.1962890625,-46.9287109375,-47.4169921875,-48.1982421875,-48.1494140625,-49.2236328125,-49.1259765625,-49.1748046875,-47.4169921875,-46.2939453125,-45.3173828125,-45.2197265625,-44.7314453125,-43.8525390625,-43.8037109375,-43.5595703125,-43.4619140625,-43.5107421875,-43.6083984375,-43.5107421875,-43.4130859375,-43.6572265625,-43.7060546875,-44.2919921875,-44.8291015625,-44.9267578125,-45.4150390625,-45.9033203125,-46.4892578125,-47.0263671875,-46.4892578125,-44.8779296875,-43.6572265625,-42.7294921875,-42.3388671875,-41.8994140625,-40.7275390625,-40.4345703125,-40.5322265625,-40.2880859375,-39.6533203125,-39.2138671875,-39.2626953125,-39.4091796875,-40.1416015625,-40.6787109375,-41.1669921875,-40.6787109375,-41.2646484375,-41.9482421875,-42.1435546875,-41.8017578125,-43.7060546875,-43.6572265625,-43.5107421875,-41.7041015625,-41.0205078125,-40.2392578125,-39.3603515625,-39.2626953125,-38.2373046875,-38.6279296875,-37.6513671875,-37.8466796875,-38.1884765625,-37.7978515625,-37.4072265625,-38.4326171875,-38.2861328125,-39.1650390625,-39.4580078125,-39.8486328125,-40.1904296875,-41.2646484375,-42.0947265625,-42.5341796875,-43.3642578125,-43.9501953125,-43.8525390625,-42.3876953125,-41.9482421875,-40.5322265625,-40.6298828125,-40.1416015625,-39.8486328125,-39.8486328125,-40.2880859375,-40.3369140625,-40.1904296875,-40.0439453125,-39.8974609375,-40.3369140625,-41.0693359375,-42.2412109375,-42.7294921875,-42.6318359375,-43.3154296875,-43.8525390625,-44.5361328125,-45.1220703125,-45.9521484375,-46.0986328125,-44.9755859375,-43.4619140625,-43.4130859375,-43.1201171875,-42.8271484375,-42.9736328125,-42.5830078125,-42.3876953125,-43.0712890625,-42.0947265625,-42.7294921875,-42.3876953125,-42.4853515625,-43.0224609375,-43.2177734375,-43.7548828125,-43.8525390625,-44.1943359375,-45.3173828125,-45.9033203125,-46.3427734375,-46.5869140625,-44.5849609375,-43.9501953125,-42.5341796875,-42.3388671875,-41.8017578125,-40.7275390625,-40.5322265625,-40.6787109375,-40.6787109375,-40.2392578125,-39.9951171875,-39.9462890625,-40.2392578125,-40.1416015625,-40.9228515625,-41.1669921875,-41.1669921875,-41.8994140625,-42.0947265625,-42.0947265625,-43.0224609375,-43.4130859375,-43.8037109375,-43.0224609375,-41.6552734375,-40.5810546875,-40.5322265625,-39.1650390625,-38.5302734375,-38.4814453125,-37.1630859375,-37.6513671875,-37.2119140625,-37.3095703125,-37.3583984375,-36.9189453125,-37.3095703125,-37.7978515625,-37.4560546875,-38.4326171875,-38.7744140625,-39.4580078125,-39.0185546875,-40.4833984375,-41.1181640625,-40.8740234375,-41.2158203125,-39.7998046875,-38.7744140625,-37.7490234375,-37.3095703125,-36.9189453125,-36.8212890625,-35.4541015625,-35.5029296875,-35.9423828125,-35.2587890625,-35.7470703125,-35.7470703125,-36.1376953125,-37.1142578125,-37.4560546875,-37.2607421875,-38.6279296875,-38.8720703125,-39.9462890625,-39.9951171875,-40.9228515625,-41.9482421875,-42.1435546875,-42.4853515625,-41.0693359375,-39.9951171875,-39.7021484375,-39.6533203125,-39.0673828125,-38.4326171875,-38.2373046875,-38.4814453125,-38.4326171875,-38.5791015625,-38.7744140625,-38.5302734375,-39.5068359375,-40.5322265625,-40.1904296875,-40.5810546875,-40.9228515625,-41.7041015625,-42.9248046875,-42.7294921875,-43.8037109375,-44.4873046875,-44.3896484375,-42.8271484375,-42.0947265625,-42.0458984375,-41.2646484375,-40.4345703125,-39.9951171875,-39.9462890625,-40.2880859375,-40.3369140625,-40.3369140625,-40.5810546875,-40.6787109375,-40.3857421875,-40.6787109375,-41.4111328125,-41.3623046875,-42.0947265625,-42.1435546875,-43.6572265625,-43.9013671875,-44.9755859375,-43.8037109375,-43.3154296875,-41.9482421875,-42.2412109375,-41.0205078125,-40.2880859375,-40.1904296875,-39.7021484375,-40.2392578125,-39.6533203125,-39.7509765625,-39.6533203125,-39.2138671875,-39.6044921875,-39.6533203125,-39.9951171875,-41.1181640625,-41.2646484375,-42.4853515625,-43.0224609375,-43.1689453125,-43.9990234375,-44.4384765625,-44.7802734375,-42.9248046875,-42.0947265625,-41.3134765625,-41.3134765625,-40.5322265625,-39.9951171875,-39.7998046875,-39.9951171875,-39.4580078125,-39.9951171875,-40.2392578125,-40.5810546875,-40.4833984375,-41.2646484375,-40.7275390625,-41.6064453125,-41.9482421875,-43.1201171875,-43.7548828125,-44.4384765625,-45.2685546875,-45.6591796875,-46.8310546875,-48.0517578125,-46.5380859375,-45.2197265625,-44.8779296875,-44.2431640625,-44.3896484375,-44.5361328125,-44.1943359375,-44.4873046875,-44.7314453125,-44.6337890625,-44.7314453125,-45.3173828125,-45.5126953125,-46.7822265625,-46.9775390625,-47.4658203125,-48.0029296875,-48.9306640625,-49.6142578125,-50.0537109375,-51.3720703125,-51.8603515625,-52.7392578125,-52.7880859375,-51.3232421875,-50.0048828125,-50.2978515625,-50.3955078125,-50.1025390625,-49.8095703125,-50.2001953125,-49.9560546875,-50.0048828125,-50.1513671875,-50.5908203125,-51.1279296875,-51.4208984375,-51.3232421875,-52.2998046875,-52.8857421875,-52.8857421875,-53.5693359375,-54.7900390625,-55.0830078125,-55.6689453125,-55.8154296875,-53.9599609375,-53.6669921875,-52.7880859375,-52.7392578125,-52.3486328125,-51.9091796875,-51.8115234375,-51.5673828125,-51.8115234375,-52.1044921875,-51.5185546875,-52.0556640625,-51.7626953125,-52.8369140625,-52.6904296875,-53.2275390625,-54.1064453125,-54.0087890625,-54.6923828125,-54.9853515625,-56.1572265625,-55.9130859375,-57.1337890625,-56.0107421875,-53.8623046875,-53.2275390625,-53.0810546875,-53.2275390625,-52.7880859375,-52.0068359375,-52.0068359375,-51.9580078125,-51.6650390625,-51.9580078125,-51.4697265625,-51.3720703125,-51.6650390625,-52.6416015625,-52.4462890625,-53.0322265625,-53.1787109375,-54.5947265625,-54.5947265625,-55.4248046875,-56.2548828125,-56.9873046875,-58.1103515625,-56.8408203125,-55.0341796875,-54.5947265625,-53.7646484375,-53.0810546875,-53.4228515625,-52.7392578125,-52.9833984375,-52.5927734375,-52.8369140625,-53.0810546875,-52.4462890625,-53.5205078125,-53.3740234375,-53.9111328125,-53.7646484375,-54.3505859375,-54.6923828125,-55.2783203125,-55.7177734375,-56.3037109375,-57.6220703125,-58.2568359375,-58.5986328125,-58.4521484375,-56.6943359375,-55.4248046875,-55.6201171875,-55.5712890625,-54.9365234375,-54.6923828125,-54.6435546875,-54.6923828125,-54.8876953125,-55.0830078125,-55.0341796875,-55.0830078125,-54.8876953125,-55.4248046875,-56.0595703125,-56.3037109375,-57.0849609375,-57.6220703125,-58.1103515625,-58.3056640625,-59.2822265625,-59.2822265625,-57.3291015625,-56.4990234375,-55.2783203125,-55.0341796875,-54.6435546875,-54.0576171875,-53.7158203125,-53.4228515625,-53.2275390625,-53.6669921875,-53.1787109375,-52.7880859375,-53.0810546875,-52.6904296875,-53.5693359375,-53.7646484375,-54.2529296875,-54.7412109375,-54.7900390625,-55.5712890625,-55.8154296875,-55.7177734375,-54.0087890625,-52.5927734375,-52.3486328125,-50.7373046875,-49.5166015625,-49.4189453125,-48.3935546875,-48.1982421875,-48.0517578125,-48.1005859375,-47.5146484375,-47.7099609375,-47.9052734375,-47.8076171875,-47.2216796875,-47.1240234375,-47.9052734375,-48.5888671875,-49.0283203125,-49.3212890625,-50.0048828125,-50.0048828125,-49.9560546875,-48.0029296875,-46.6357421875,-45.4150390625,-44.9755859375,-43.8037109375,-43.4619140625,-42.7294921875,-42.8271484375,-42.3876953125,-42.3876953125,-41.7041015625,-40.4833984375,-41.9482421875,-42.9736328125,-43.1201171875,-42.7294921875,-43.5107421875,-44.3408203125,-44.8779296875,-45.3662109375,-46.1962890625,-47.1728515625,-47.1728515625,-47.5634765625,-45.7568359375,-44.0478515625,-43.8525390625,-42.9248046875,-42.5341796875,-42.2412109375,-41.6064453125,-41.5576171875,-41.7041015625,-42.0947265625,-41.8017578125,-41.8017578125,-41.9970703125,-42.5341796875,-42.9248046875,-44.1943359375,-44.0966796875,-44.7802734375,-46.2451171875,-46.3916015625,-46.8798828125,-48.1005859375,-48.6865234375,-46.6845703125,-45.2685546875,-44.6826171875,-44.3408203125,-43.7548828125,-44.1455078125,-43.1201171875,-43.9501953125,-43.6083984375,-43.4619140625,-43.9013671875,-43.9013671875,-43.9501953125,-44.8291015625,-45.0732421875,-45.9033203125,-45.5615234375,-47.0263671875,-47.1240234375,-47.9052734375,-48.3935546875,-48.0517578125,-45.8544921875,-44.5361328125,-44.0966796875,-43.6572265625,-43.3154296875,-42.1435546875,-42.4853515625,-42.4365234375,-42.9248046875,-42.4365234375,-42.5830078125,-42.3876953125,-42.7294921875,-42.4853515625,-42.9736328125,-43.6083984375,-43.3642578125,-44.4384765625,-44.4873046875,-45.7568359375,-46.6357421875,-45.9521484375,-43.9013671875,-42.5341796875,-41.5576171875,-40.9228515625,-40.5810546875,-39.5556640625,-39.4091796875,-39.5556640625,-39.5068359375,-39.6533203125,-39.3115234375,-39.2138671875,-39.7021484375,-39.8486328125,-39.8974609375,-40.5322265625,-40.4833984375,-41.3623046875,-42.1435546875,-42.2412109375,-43.7548828125,-43.9501953125,-43.0712890625,-40.7275390625,-40.3369140625,-39.9462890625,-39.0673828125,-38.8720703125,-38.0908203125,-37.3583984375,-37.8466796875,-37.1142578125,-37.9931640625,-37.8466796875,-37.7001953125,-38.0419921875,-38.5302734375,-38.8720703125,-39.6533203125,-40.5810546875,-41.0205078125,-41.4599609375,-42.3876953125,-44.2919921875,-44.3408203125,-44.9267578125,-43.2666015625,-42.2900390625,-41.2158203125,-41.1669921875,-40.9716796875,-40.3369140625,-39.9951171875,-40.7763671875,-40.3369140625,-40.4345703125,-40.8251953125,-40.3857421875,-41.7041015625,-41.8017578125,-42.5341796875,-43.0712890625,-43.7548828125,-44.3896484375,-45.3173828125,-46.2939453125,-46.7822265625,-47.7099609375,-48.0029296875,-46.0009765625,-44.6826171875,-44.1943359375,-44.3896484375,-44.5361328125,-44.3408203125,-44.1943359375,-44.6337890625,-44.7802734375,-44.8779296875,-44.7314453125,-44.9267578125,-44.9755859375,-45.3173828125,-46.1474609375,-47.0263671875,-47.5146484375,-47.8564453125,-48.5400390625,-49.6142578125,-50.4931640625,-48.6376953125,-47.6123046875,-47.1240234375,-46.4892578125,-45.8056640625,-45.1220703125,-45.3173828125,-44.9267578125,-45.2197265625,-44.8779296875,-44.9267578125,-44.5849609375,-45.0244140625,-45.3662109375,-45.4638671875,-46.2939453125,-46.6357421875,-46.9775390625,-47.7099609375,-47.9541015625,-48.7353515625,-49.9072265625,-50.4443359375,-48.1005859375,-47.5634765625,-46.9287109375,-46.0986328125,-46.0986328125,-45.2197265625,-44.6337890625,-44.6826171875,-44.7314453125,-45.5615234375,-44.6826171875,-45.3662109375,-45.1708984375,-45.5126953125,-45.8544921875,-46.7333984375,-46.9287109375,-47.7587890625,-48.1005859375,-48.1982421875,-49.4189453125,-50.5419921875,-51.4208984375,-49.8095703125,-48.9794921875,-47.9052734375,-47.2705078125,-47.4658203125,-46.7822265625,-46.9775390625,-47.2216796875,-46.9287109375,-47.0263671875,-46.7822265625,-47.2705078125,-47.9541015625,-47.7587890625,-48.8330078125,-48.5888671875,-49.9560546875,-50.7373046875,-51.5673828125,-52.2998046875,-53.7158203125,-53.6669921875,-55.3271484375,-56.1083984375,-55.7666015625,-54.4970703125,-53.1787109375,-52.5927734375,-53.2763671875,-52.5927734375,-52.7880859375,-52.9833984375,-53.0322265625,-53.6669921875,-54.2529296875,-54.4482421875,-55.0830078125,-55.0830078125,-56.2548828125,-56.4990234375,-57.2802734375,-58.0126953125,-58.9404296875,-60.1123046875,-60.5517578125,-61.3818359375,-62.3583984375,-62.0654296875,-60.2587890625,-60.1123046875,-59.2333984375,-59.6728515625,-59.6728515625,-59.2822265625,-59.5751953125,-59.9169921875,-60.3076171875,-59.7216796875,-60.0146484375,-60.2099609375,-60.7958984375,-61.3330078125,-61.9189453125,-62.4560546875,-62.8466796875,-63.5302734375,-64.7021484375,-65.9228515625,-66.1181640625,-65.6787109375,-64.0185546875,-63.4814453125,-62.1142578125,-62.1630859375,-61.6748046875,-62.0166015625,-61.9189453125,-61.8212890625,-62.1630859375,-62.2607421875,-62.3095703125,-62.1142578125,-62.2119140625,-62.5537109375,-62.9443359375,-64.0185546875,-64.1650390625,-64.4580078125,-65.3369140625,-65.8251953125,-67.6806640625,-67.3388671875,-66.1181640625,-64.1162109375,-63.6767578125,-63.8232421875,-63.6279296875,-62.6025390625,-62.3095703125,-62.3095703125,-62.1142578125,-62.2607421875,-62.3583984375,-61.7236328125,-62.1630859375,-61.8701171875,-61.9677734375,-63.0419921875,-63.4814453125,-63.8720703125,-64.7021484375,-64.8974609375,-65.5322265625,-66.1181640625,-66.9970703125,-66.6552734375,-64.6044921875,-63.4814453125,-62.8466796875,-62.2119140625,-62.0166015625,-61.9189453125,-62.0166015625,-61.3330078125,-61.6748046875,-61.2353515625,-61.2841796875,-61.2841796875,-62.2607421875,-62.6025390625,-63.0908203125,-63.2861328125,-63.1884765625,-64.5556640625,-64.5556640625,-65.3369140625,-66.0693359375,-66.1669921875,-67.8271484375,-68.1689453125,-65.9228515625,-64.3603515625,-64.2626953125,-64.2626953125,-63.5302734375,-63.1884765625,-62.3095703125,-62.7490234375,-62.9443359375,-62.7490234375,-62.5048828125,-62.7001953125,-62.8955078125,-63.4814453125,-63.1884765625,-64.1650390625,-64.2138671875,-65.2392578125,-65.1904296875,-65.6298828125,-66.4111328125,-67.4365234375,-67.6318359375,-67.4853515625,-65.7763671875,-64.8486328125,-64.2626953125,-64.3603515625,-63.6767578125,-62.7490234375,-62.8955078125,-63.0908203125,-63.5302734375,-62.7490234375,-62.4072265625,-62.9443359375,-63.3349609375,-63.5302734375,-63.3837890625,-63.7744140625,-64.2626953125,-64.6044921875,-65.1904296875,-65.6787109375,-66.7529296875,-66.3134765625,-65.1904296875,-63.3837890625,-62.7001953125,-62.4560546875,-61.4306640625,-60.9912109375,-60.3564453125,-60.1123046875,-59.5263671875,-59.3310546875,-59.1357421875,-59.5263671875,-59.0869140625,-59.0380859375,-59.5751953125,-59.1357421875,-59.2822265625,-60.4052734375,-60.5029296875,-60.3564453125,-61.7236328125,-61.6259765625,-62.7001953125,-62.0166015625,-60.0634765625,-58.2080078125,-58.5009765625,-57.2802734375,-56.7431640625,-56.0595703125,-55.1318359375,-54.5458984375,-54.3994140625,-54.2041015625,-54.1552734375,-54.2529296875,-53.6669921875,-54.0087890625,-53.7158203125,-54.3505859375,-54.3017578125,-55.1318359375,-54.9365234375,-55.8642578125,-56.4013671875,-56.6943359375,-57.1337890625,-58.3544921875,-56.1572265625,-54.7900390625,-53.8623046875,-53.1787109375,-52.9345703125,-51.5673828125,-51.6162109375,-51.0302734375,-50.8349609375,-50.4443359375,-50.8837890625,-50.5908203125,-50.9326171875,-50.4443359375,-50.8349609375,-51.6162109375,-51.7626953125,-52.3974609375,-53.4228515625,-53.5205078125,-53.9599609375,-55.1318359375,-55.1806640625,-56.2548828125,-57.5244140625,-56.5478515625,-55.6201171875,-54.3017578125,-53.8134765625,-53.9599609375,-52.9345703125,-52.4462890625,-52.6904296875,-52.6904296875,-51.9580078125,-52.9345703125,-52.5927734375,-53.3251953125,-53.0810546875,-53.5205078125,-54.0087890625,-54.5947265625,-54.9365234375,-55.5712890625,-56.4013671875,-57.3779296875,-57.6220703125,-58.5986328125,-57.6220703125,-55.8642578125,-55.0830078125,-54.3994140625,-54.2529296875,-54.2529296875,-53.1298828125,-53.1787109375,-53.9111328125,-53.1787109375,-53.6181640625,-53.3740234375,-53.5693359375,-53.4228515625,-54.0087890625,-54.5458984375,-54.5947265625,-55.0830078125,-55.1806640625,-57.0361328125,-56.8896484375,-57.4267578125,-56.0595703125,-54.6435546875,-53.7646484375,