PPG_subj_01,24,F,N,Non-diabetic,108,34.2891,Forehead,0.185546875,0.185546875,0.185546875,0.185546875,0.185546875,0.185546875,91.5380859375,-65.9130859375,-65.4248046875,-63.5693359375,-58.8330078125,-56.2451171875,-55.1708984375,-54.8779296875,-54.1943359375,-54.5849609375,-54.9267578125,-55.5126953125,-55.7080078125,-55.1708984375,-54.8291015625,-54.7314453125,-55.3662109375,-55.5126953125,-56.8798828125,-57.9052734375,-58.4423828125,-59.2724609375,-60.1513671875,-61.1279296875,-61.4697265625,-63.2763671875,-63.0322265625,-64.3994140625,-64.3994140625,-64.5947265625,-61.2744140625,-57.4169921875,-55.2685546875,-54.0478515625,-54.3896484375,-54.0478515625,-54.0478515625,-54.2919921875,-54.5361328125,-55.3173828125,-54.9267578125,-55.0732421875,-54.5361328125,-54.8291015625,-56.0986328125,-57.3681640625,-58.4912109375,-59.5166015625,-60.2001953125,-61.0302734375,-61.7138671875,-62.2509765625,-62.2998046875,-63.1787109375,-63.4228515625,-62.4462890625,-58.8818359375,-55.4638671875,-54.4384765625,-53.6083984375,-53.9013671875,-53.8525390625,-54.1943359375,-55.2197265625,-55.5126953125,-55.1708984375,-54.7314453125,-54.7314453125,-54.8779296875,-55.3173828125,-56.1962890625,-57.2216796875,-58.6865234375,-59.1748046875,-60.5419921875,-61.1279296875,-62.5927734375,-62.7880859375,-63.2275390625,-63.3740234375,-63.2275390625,-58.2470703125,-54.8779296875,-54.4873046875,-53.2177734375,-53.1689453125,-53.4619140625,-53.8037109375,-54.1943359375,-54.6826171875,-54.5361328125,-53.2666015625,-53.6083984375,-53.9501953125,-54.3896484375,-55.2197265625,-56.6845703125,-56.8310546875,-57.0751953125,-57.8076171875,-58.1982421875,-59.1748046875,-59.9560546875,-60.6396484375,-60.7861328125,-60.4443359375,-59.9072265625,-54.8291015625,-51.2646484375,-50.1416015625,-49.0185546875,-49.1162109375,-47.8466796875,-47.9443359375,-47.4560546875,-48.3837890625,-48.6767578125,-48.0419921875,-48.5302734375,-49.4580078125,-49.7021484375,-50.9716796875,-51.8994140625,-53.4130859375,-54.0478515625,-55.0244140625,-55.9521484375,-56.9287109375,-57.0751953125,-57.4169921875,-58.9794921875,-58.7353515625,-56.6845703125,-52.7294921875,-49.5556640625,-48.8232421875,-48.0419921875,-48.8232421875,-48.2373046875,-48.8232421875,-49.4091796875,-49.7021484375,-49.5068359375,-49.6044921875,-49.5556640625,-49.7998046875,-50.9716796875,-51.4599609375,-52.4365234375,-54.0478515625,-54.0966796875,-56.0498046875,-56.2451171875,-57.3681640625,-58.2470703125,-58.3447265625,-59.3701171875,-59.3212890625,-60.2978515625,-58.6865234375,-53.5595703125,-50.9716796875,-49.7021484375,-49.2138671875,-48.7255859375,-49.0673828125,-49.1162109375,-49.0185546875,-49.9951171875,-49.9951171875,-49.2138671875,-49.7509765625,-50.3369140625,-50.8740234375,-52.4365234375,-53.7060546875,-55.1220703125,-56.1962890625,-56.5380859375,-56.8310546875,-58.2958984375,-58.5400390625,-59.5654296875,-59.5166015625,-60.1025390625,-59.1259765625,-55.5126953125,-51.7041015625,-50.3857421875,-50.0439453125,-50.2880859375,-50.0927734375,-50.5810546875,-51.1669921875,-51.2158203125,-51.4599609375,-50.6787109375,-50.4833984375,-51.1669921875,-51.6552734375,-52.9248046875,-54.4873046875,-55.3173828125,-57.1240234375,-56.6845703125,-57.4169921875,-58.3447265625,-59.9560546875,-59.5166015625,-60.0048828125,-60.0048828125,-57.1728515625,-52.7294921875,-50.3369140625,-50.2392578125,-49.7509765625,-50.1416015625,-49.7509765625,-50.9716796875,-51.6552734375,-51.2646484375,-50.7763671875,-51.1669921875,-50.9716796875,-51.2158203125,-52.2412109375,-54.0478515625,-55.5126953125,-56.0986328125,-57.1240234375,-57.7099609375,-58.9306640625,-59.4677734375,-60.0048828125,-60.6396484375,-60.6884765625,-60.3466796875,-57.2216796875,-53.1201171875,-50.5322265625,-49.7509765625,-48.8232421875,-49.0185546875,-49.3603515625,-49.0185546875,-49.6044921875,-49.9951171875,-49.5556640625,-49.2138671875,-49.5068359375,-49.2138671875,-50.6787109375,-51.4599609375,-53.3642578125,-54.2919921875,-55.6591796875,-55.9033203125,-56.3916015625,-57.5634765625,-58.1494140625,-58.2470703125,-58.8818359375,-59.4677734375,-59.9072265625,-55.9521484375,-51.5576171875,-49.2138671875,-48.1884765625,-47.8466796875,-47.2607421875,-47.7978515625,-47.8466796875,-47.7978515625,-48.4326171875,-47.7490234375,-47.7001953125,-47.7001953125,-47.7978515625,-49.3603515625,-50.1904296875,-51.5087890625,-52.7783203125,-53.7060546875,-54.3408203125,-55.1220703125,-55.5126953125,-55.7568359375,-56.7822265625,-57.1240234375,-57.8564453125,-58.2470703125,-57.3193359375,-52.2412109375,-49.2138671875,-47.5048828125,-46.5283203125,-46.4306640625,-46.2353515625,-46.0400390625,-46.5771484375,-47.2607421875,-47.1630859375,-46.7724609375,-46.5771484375,-46.5771484375,-47.8466796875,-49.7509765625,-50.7763671875,-52.0458984375,-53.0224609375,-53.9501953125,-54.7314453125,-55.7568359375,-56.1474609375,-56.9775390625,-56.9287109375,-58.1494140625,-58.1982421875,-57.7587890625,-53.8525390625,-49.7998046875,-48.6279296875,-47.4072265625,-47.2607421875,-47.8466796875,-47.5537109375,-47.9931640625,-48.8232421875,-48.8720703125,-48.1884765625,-48.6767578125,-49.1162109375,-49.5556640625,-50.5810546875,-51.7529296875,-52.6806640625,-53.7548828125,-54.3408203125,-55.4638671875,-56.4892578125,-56.7822265625,-57.2216796875,-57.4169921875,-58.3447265625,-59.2724609375,-56.5380859375,-52.1435546875,-49.7021484375,-47.7978515625,-47.7490234375,-48.2373046875,-48.2861328125,-48.6279296875,-49.3603515625,-49.5068359375,-49.4091796875,-49.5068359375,-49.0673828125,-49.7509765625,-50.5322265625,-51.8017578125,-52.6806640625,-53.4619140625,-54.1943359375,-54.8779296875,-55.9521484375,-57.0263671875,-57.4169921875,-57.7587890625,-58.3447265625,-59.0283203125,-60.0048828125,-59.1748046875,-54.9267578125,-50.3857421875,-48.1884765625,-48.0419921875,-48.8720703125,-48.4326171875,-48.2373046875,-48.9208984375,-49.5556640625,-49.5556640625,-48.5302734375,-49.3115234375,-49.9462890625,-51.5576171875,-52.1435546875,-53.6572265625,-53.5107421875,-54.5849609375,-55.3173828125,-57.3193359375,-58.2958984375,-58.5888671875,-58.2958984375,-59.4677734375,-60.2490234375,-61.3232421875,-61.1279296875,-57.7587890625,-52.6318359375,-49.9951171875,-49.2626953125,-49.2626953125,-49.2138671875,-48.7255859375,-48.7255859375,-49.3115234375,-50.0927734375,-49.8974609375,-49.7509765625,-49.9951171875,-50.2392578125,-50.9716796875,-52.2412109375,-53.2666015625,-54.2919921875,-54.9267578125,-55.8056640625,-56.5380859375,-56.5380859375,-56.3427734375,-56.7822265625,-57.3681640625,-58.1005859375,-58.9794921875,-56.2939453125,-51.3134765625,-47.8466796875,-46.5283203125,-45.5517578125,-44.9658203125,-44.0869140625,-43.4521484375,-45.0146484375,-44.9169921875,-44.1845703125,-44.1357421875,-44.4775390625,-45.4541015625,-46.6259765625,-47.7978515625,-48.5302734375,-49.1650390625,-49.6044921875,-50.8251953125,-51.8505859375,-52.3388671875,-52.9736328125,-53.5595703125,-53.9501953125,-54.1943359375,-50.7763671875,-46.4794921875,-44.1845703125,-43.7939453125,-43.5009765625,-43.5986328125,-43.7451171875,-44.4287109375,-44.8193359375,-45.5517578125,-45.3076171875,-45.3564453125,-45.6005859375,-45.6982421875,-47.3095703125,-48.1396484375,-49.3603515625,-49.9462890625,-51.4111328125,-52.0947265625,-53.4130859375,-53.7548828125,-55.1220703125,-54.5849609375,-52.7294921875,-49.4091796875,-45.9423828125,-45.0146484375,-44.6728515625,-44.6240234375,-44.6728515625,-45.3076171875,-45.4052734375,-45.8935546875,-45.5517578125,-45.6494140625,-45.5517578125,-46.1865234375,-47.7490234375,-49.2626953125,-49.8974609375,-51.1669921875,-51.8505859375,-53.1689453125,-53.9990234375,-54.6826171875,-54.8779296875,-55.3662109375,-56.1962890625,-56.8310546875,-54.8291015625,-49.9951171875,-46.5771484375,-45.4052734375,-45.5517578125,-45.6982421875,-45.1123046875,-45.6982421875,-46.5283203125,-46.5283203125,-46.2353515625,-45.9912109375,-45.8447265625,-46.3330078125,-47.2119140625,-48.8232421875,-49.1650390625,-49.9951171875,-51.8505859375,-52.2900390625,-53.7060546875,-54.9267578125,-55.2197265625,-56.1474609375,-56.6357421875,-56.8798828125,-54.9267578125,-50.7275390625,-47.3583984375,-46.8212890625,-46.5283203125,-46.7724609375,-47.2607421875,-47.3095703125,-47.8955078125,-48.3349609375,-48.0419921875,-47.3583984375,-47.6513671875,-48.2373046875,-48.5791015625,-50.2880859375,-51.5576171875,-52.6318359375,-53.0712890625,-54.2919921875,-54.7802734375,-54.9755859375,-55.5615234375,-56.6845703125,-56.6845703125,-54.7802734375,-51.1181640625,-48.1396484375,-46.9677734375,-46.3330078125,-47.4560546875,-46.8212890625,-47.9443359375,-48.9697265625,-49.3115234375,-48.5791015625,-48.7744140625,-48.7255859375,-48.7255859375,-49.7998046875,-51.4111328125,-52.3876953125,-52.7294921875,-53.7060546875,-54.6337890625,-55.8544921875,-56.1962890625,-56.3916015625,-56.2451171875,-57.7587890625,-56.8310546875,-52.8759765625,-49.0185546875,-47.2607421875,-46.9189453125,-46.2841796875,-47.1142578125,-46.4794921875,-47.2119140625,-47.5048828125,-47.6513671875,-47.9443359375,-47.0166015625,-47.3583984375,-48.1396484375,-48.8720703125,-49.6533203125,-49.7998046875,-50.6787109375,-51.5087890625,-52.6318359375,-53.7548828125,-53.3154296875,-53.3154296875,-53.9501953125,-54.1943359375,-54.3408203125,-50.8740234375,-46.1865234375,-44.6728515625,-44.0380859375,-43.7939453125,-43.9404296875,-44.1357421875,-44.2822265625,-44.8681640625,-45.0146484375,-44.1845703125,-44.1357421875,-44.3310546875,-44.3798828125,-44.5263671875,-45.6982421875,-47.2119140625,-48.4326171875,-48.8720703125,-48.9208984375,-50.1416015625,-50.7763671875,-50.4345703125,-50.9716796875,-52.1435546875,-51.9482421875,-49.9951171875,-45.9912109375,-42.5732421875,-41.9873046875,-41.8408203125,-42.1826171875,-41.6943359375,-41.4501953125,-41.8896484375,-42.5244140625,-41.7431640625,-41.9384765625,-41.6943359375,-42.0849609375,-42.3779296875,-43.4521484375,-44.2822265625,-45.8935546875,-46.3818359375,-47.3095703125,-47.5537109375,-48.5302734375,-48.5791015625,-48.6279296875,-49.6533203125,-49.7998046875,-47.9931640625,-44.4287109375,-40.9619140625,-39.8876953125,-40.5224609375,-40.1318359375,-39.4482421875,-39.9365234375,-40.7177734375,-40.8154296875,-40.1806640625,-39.5458984375,-39.7412109375,-40.4248046875,-40.9130859375,-42.1337890625,-43.0126953125,-43.9892578125,-43.8427734375,-45.4052734375,-45.9423828125,-46.4306640625,-47.0654296875,-47.1142578125,-47.1630859375,-45.8935546875,-41.5478515625,-38.3740234375,-38.0322265625,-37.3486328125,-37.2998046875,-37.5927734375,-37.1533203125,-38.1298828125,-38.0810546875,-37.8369140625,-37.7392578125,-37.1533203125,-37.3486328125,-38.1787109375,-39.2529296875,-40.8154296875,-41.5478515625,-42.3291015625,-43.3544921875,-44.2333984375,-44.9169921875,-45.1611328125,-46.1376953125,-46.4794921875,-47.6025390625,-46.8212890625,-43.5986328125,-39.0087890625,-36.6162109375,-35.9814453125,-35.3955078125,-35.4443359375,-34.3701171875,-34.0283203125,-35.0048828125,-35.2978515625,-34.4677734375,-34.7607421875,-34.2236328125,-35.2978515625,-36.5673828125,-37.9345703125,-39.1064453125,-40.1806640625,-40.4736328125,-41.5478515625,-42.8173828125,-43.1591796875,-43.5498046875,-43.4033203125,-44.1845703125,-45.1123046875,-46.2841796875,-47.4072265625,-44.0869140625,-38.6669921875,-35.3466796875,-33.9794921875,-33.5400390625,-33.0517578125,-32.4658203125,-32.1240234375,-32.4658203125,-33.1982421875,-32.9541015625,-32.3193359375,-32.8564453125,-33.6376953125,-34.1259765625,-36.0791015625,-37.2509765625,-38.3740234375,-38.5205078125,-39.3505859375,-40.7177734375,-41.9873046875,-42.1826171875,-42.6220703125,-42.9638671875,-44.1357421875,-44.8681640625,-46.2841796875,-46.6748046875,-43.7451171875,-37.4462890625,-35.1025390625,-33.6376953125,-32.7099609375,-33.0029296875,-32.6123046875,-31.9775390625,-33.6865234375,-34.8095703125,-33.6865234375,-34.2724609375,-34.3212890625,-34.9072265625,-35.9326171875,-36.9580078125,-38.3740234375,-38.9599609375,-40.2783203125,-41.4990234375,-42.5732421875,-43.3544921875,-43.7451171875,-44.0380859375,-45.5029296875,-46.0400390625,-47.0166015625,-47.3095703125,-44.3310546875,-39.8388671875,-37.1044921875,-35.9814453125,-36.0302734375,-36.8115234375,-37.0068359375,-36.4697265625,-37.1533203125,-38.2275390625,-37.8857421875,-37.7880859375,-38.0810546875,-37.9833984375,-39.2529296875,-41.5478515625,-42.2802734375,-42.9638671875,-43.4033203125,-45.1123046875,-45.8447265625,-46.9189453125,-47.9931640625,-47.5048828125,-47.4072265625,-48.4326171875,-50.1416015625,-50.7763671875,-51.3134765625,-48.4814453125,-42.5244140625,-39.5458984375,-39.5458984375,-40.0830078125,-39.8388671875,-39.3505859375,-40.0830078125,-40.4248046875,-41.2060546875,-40.4248046875,-40.6201171875,-40.4248046875,-40.8154296875,-42.0361328125,-43.6962890625,-44.4287109375,-44.9658203125,-45.8447265625,-47.5048828125,-48.0908203125,-48.4326171875,-49.3603515625,-49.2138671875,-49.8974609375,-50.7275390625,-51.6552734375,-52.6318359375,-51.8505859375,-48.1884765625,-43.1103515625,-40.3759765625,-40.6201171875,-40.1806640625,-39.6435546875,-39.4970703125,-40.0341796875,-41.4501953125,-41.3037109375,-40.8154296875,-40.3759765625,-40.6201171875,-41.5478515625,-42.1826171875,-43.1591796875,-44.7216796875,-45.1123046875,-45.6005859375,-46.7724609375,-48.0419921875,-48.1396484375,-48.6279296875,-49.4580078125,-49.2626953125,-50.5322265625,-51.4111328125,-50.5810546875,-47.0654296875,-42.1826171875,-40.2783203125,-39.6923828125,-40.2294921875,-39.9853515625,-39.9853515625,-40.2294921875,-41.3037109375,-40.7666015625,-40.4248046875,-40.6201171875,-40.5224609375,-40.8154296875,-41.7919921875,-43.2568359375,-44.2333984375,-44.7216796875,-45.6494140625,-47.0166015625,-47.7001953125,-48.1884765625,-48.4814453125,-49.2626953125,-49.5068359375,-49.3115234375,-45.0146484375,-40.7666015625,-38.7158203125,-39.0087890625,-39.0087890625,-38.8623046875,-39.2529296875,-39.4482421875,-40.6201171875,-40.4248046875,-39.6923828125,-39.9853515625,-39.8388671875,-40.9130859375,-41.7919921875,-42.4267578125,-43.0615234375,-44.7705078125,-45.3076171875,-46.1865234375,-47.5048828125,-48.2373046875,-48.4326171875,-49.2138671875,-49.6044921875,-50.9228515625,-47.7001953125,-42.2802734375,-39.3017578125,-37.7880859375,-37.8857421875,-38.0322265625,-37.5927734375,-38.2275390625,-38.7646484375,-39.9365234375,-39.1064453125,-39.5947265625,-39.3017578125,-39.5458984375,-40.5224609375,-42.1337890625,-42.9150390625,-43.6474609375,-45.2099609375,-46.1376953125,-46.6748046875,-47.6025390625,-48.2861328125,-48.6279296875,-49.4580078125,-50.0439453125,-49.2138671875,-45.2099609375,-39.9853515625,-38.6669921875,-37.1533203125,-37.4462890625,-37.3974609375,-36.9091796875,-37.6904296875,-38.1787109375,-38.4228515625,-38.1298828125,-37.8857421875,-38.3740234375,-38.8134765625,-39.8388671875,-40.6201171875,-41.9873046875,-42.8662109375,-43.5986328125,-45.3076171875,-45.9912109375,-46.8212890625,-47.3095703125,-47.3095703125,-48.0908203125,-49.2626953125,-48.3349609375,-44.0869140625,-39.4482421875,-37.3486328125,-37.1533203125,-37.1533203125,-37.9345703125,-38.2275390625,-37.6904296875,-38.5205078125,-38.8623046875,-38.2275390625,-38.4228515625,-38.4716796875,-38.7646484375,-39.9853515625,-41.5966796875,-42.3779296875,-42.7197265625,-44.0380859375,-45.3564453125,-45.6982421875,-46.3818359375,-47.4072265625,-47.7978515625,-48.0908203125,-45.1611328125,-41.2548828125,-38.1298828125,-37.1533203125,-37.4462890625,-38.1787109375,-38.2763671875,-38.4228515625,-38.9599609375,-39.3017578125,-39.2041015625,-39.4970703125,-39.2529296875,-39.8876953125,-40.6689453125,-41.3525390625,-42.8173828125,-43.5986328125,-44.6728515625,-46.2841796875,-47.2119140625,-47.7001953125,-48.1884765625,-49.5556640625,-50.0439453125,-49.1650390625,-45.7958984375,-41.1572265625,-38.9111328125,-38.2763671875,-37.9833984375,-38.5693359375,-38.4228515625,-38.5693359375,-39.4482421875,-40.2783203125,-39.3017578125,-39.4482421875,-39.3017578125,-40.0341796875,-40.7666015625,-41.8896484375,-43.5498046875,-43.9404296875,-45.2099609375,-46.6259765625,-47.3095703125,-48.3349609375,-48.2861328125,-49.4580078125,-49.7021484375,-49.8486328125,-46.0888671875,-41.4013671875,-39.1552734375,-38.1298828125,-38.8623046875,-38.4716796875,-38.6181640625,-38.5693359375,-39.1552734375,-39.6923828125,-39.3505859375,-39.3994140625,-39.3505859375,-40.4248046875,-41.3037109375,-42.4755859375,-43.7451171875,-44.3310546875,-44.7705078125,-46.0400390625,-46.7724609375,-47.5537109375,-47.8466796875,-48.2373046875,-48.7744140625,-49.3603515625,-49.0185546875,-45.4052734375,-40.5712890625,-37.8857421875,-37.2509765625,-37.0068359375,-36.8115234375,-37.1533203125,-36.7626953125,-38.2763671875,-37.6416015625,-37.5927734375,-37.5927734375,-37.5927734375,-38.0322265625,-39.2529296875,-40.6689453125,-41.7431640625,-43.1103515625,-43.9404296875,-44.1845703125,-45.2099609375,-46.2353515625,-46.3330078125,-46.7724609375,-47.0166015625,-47.4072265625,-45.9423828125,-41.5966796875,-37.6416015625,-36.3232421875,-35.8837890625,-36.6162109375,-36.5673828125,-36.3720703125,-36.4697265625,-37.2021484375,-37.3974609375,-36.5673828125,-36.4208984375,-36.8115234375,-37.3486328125,-38.5693359375,-39.4970703125,-40.3271484375,-41.1083984375,-41.9873046875,-42.7197265625,-43.5009765625,-43.8916015625,-44.5751953125,-44.7705078125,-45.3076171875,-44.1357421875,-39.4970703125,-36.0302734375,-35.3466796875,-34.9560546875,-35.4443359375,-34.1748046875,-34.7119140625,-34.9072265625,-35.5419921875,-35.3466796875,-34.5654296875,-35.0048828125,-35.1513671875,-36.1279296875,-37.4462890625,-38.5205078125,-38.9599609375,-39.5947265625,-40.3759765625,-41.4501953125,-42.4755859375,-43.0615234375,-43.7451171875,-44.4775390625,-44.7216796875,-43.3056640625,-38.6669921875,-35.2978515625,-33.0517578125,-33.0029296875,-32.0751953125,-33.0517578125,-32.0263671875,-32.7587890625,-33.2958984375,-33.1005859375,-32.9541015625,-33.0517578125,-32.2705078125,-32.9541015625,-34.7119140625,-35.9326171875,-37.0556640625,-37.6416015625,-38.6669921875,-39.7412109375,-40.3759765625,-40.5712890625,-42.0849609375,-42.2314453125,-42.5732421875,-43.1103515625,-40.5224609375,-35.7373046875,-32.8564453125,-31.4892578125,-31.4404296875,-31.1962890625,-30.8056640625,-30.8544921875,-30.9521484375,-31.1474609375,-30.7568359375,-31.0009765625,-31.2939453125,-31.3916015625,-32.6611328125,-34.3701171875,-35.9814453125,-36.1767578125,-37.2021484375,-37.8369140625,-39.6435546875,-40.3271484375,-40.7666015625,-41.0595703125,-41.7919921875,-41.2060546875,-37.4462890625,-33.3935546875,-31.0498046875,-30.2685546875,-30.9033203125,-30.0244140625,-29.7314453125,-30.5615234375,-30.9521484375,-31.1962890625,-31.2451171875,-30.4150390625,-30.9521484375,-31.3427734375,-33.0029296875,-34.4189453125,-35.8349609375,-35.9814453125,-36.7626953125,-38.3251953125,-38.8623046875,-39.4970703125,-40.3271484375,-40.5712890625,-38.8623046875,-34.0283203125,-30.3662109375,-29.6337890625,-28.7060546875,-29.2919921875,-29.1455078125,-29.2431640625,-30.9033203125,-31.4892578125,-30.4638671875,-30.6103515625,-30.3173828125,-31.0009765625,-31.5380859375,-32.7587890625,-33.9794921875,-34.7607421875,-35.6396484375,-36.1767578125,-38.3740234375,-38.3740234375,-38.8623046875,-39.4482421875,-39.4482421875,-36.4208984375,-31.1474609375,-28.8525390625,-27.9736328125,-28.2666015625,-28.4619140625,-28.1689453125,-28.7548828125,-29.6337890625,-29.2431640625,-29.1455078125,-29.2431640625,-29.7314453125,-29.6337890625,-30.9521484375,-32.5634765625,-33.9794921875,-34.9072265625,-36.2255859375,-36.5185546875,-37.5927734375,-38.4716796875,-38.9599609375,-39.2041015625,-39.5947265625,-38.2763671875,-33.0517578125,-29.7314453125,-28.9501953125,-29.0478515625,-28.5107421875,-28.6572265625,-28.7060546875,-28.8037109375,-29.7802734375,-29.0966796875,-29.1943359375,-29.5361328125,-29.7802734375,-30.3173828125,-31.2939453125,-32.4658203125,-33.7353515625,-34.5166015625,-34.4189453125,-36.1279296875,-36.5185546875,-37.1533203125,-37.1533203125,-37.8857421875,-38.7158203125,-37.9345703125,-33.5888671875,-29.8291015625,-28.2177734375,-28.7060546875,-27.8271484375,-27.6806640625,-28.3154296875,-28.6572265625,-29.2919921875,-28.9990234375,-28.8037109375,-29.3896484375,-29.0966796875,-30.0732421875,-30.8056640625,-31.9287109375,-33.2958984375,-34.1259765625,-34.3701171875,-35.5419921875,-36.7138671875,-37.1533203125,-37.7392578125,-38.3740234375,-37.3486328125,-33.7353515625,-29.5849609375,-28.9990234375,-29.4873046875,-29.5849609375,-29.2431640625,-29.5849609375,-29.9755859375,-30.3662109375,-30.0732421875,-30.2197265625,-30.1220703125,-30.3662109375,-31.1474609375,-31.8310546875,-33.6376953125,-34.0771484375,-34.9072265625,-35.6396484375,-36.9580078125,-37.9833984375,-38.2275390625,-37.6416015625,-37.5439453125,-35.8837890625,-31.2939453125,-29.6337890625,-29.1943359375,-28.9501953125,-28.7548828125,-28.5107421875,-29.2919921875,-29.9267578125,-30.1708984375,-30.3173828125,-29.4384765625,-29.9267578125,-29.7802734375,-31.4892578125,-32.2216796875,-33.9794921875,-34.7119140625,-35.3955078125,-36.4208984375,-37.0068359375,-38.0322265625,-39.1552734375,-39.1552734375,-40.0830078125,-38.4228515625,-34.1748046875,-30.7080078125,-30.2197265625,-29.9755859375,-29.6826171875,-29.3408203125,-29.4384765625,-29.5361328125,-29.9755859375,-30.4150390625,-30.0244140625,-30.2685546875,-30.3173828125,-31.0009765625,-32.8564453125,-33.3447265625,-34.5166015625,-35.7861328125,-36.1279296875,-36.9091796875,-37.8857421875,-38.2763671875,-39.2041015625,-39.3505859375,-40.5224609375,-40.8642578125,-37.1533203125,-32.3681640625,-30.5615234375,-30.0244140625,-30.1708984375,-29.2431640625,-29.2431640625,-29.5361328125,-29.4384765625,-30.2685546875,-29.8779296875,-30.1220703125,-30.0732421875,-30.5615234375,-31.2451171875,-32.5146484375,-34.0771484375,-34.5654296875,-35.1513671875,-36.4208984375,-37.3974609375,-38.3251953125,-38.7646484375,-39.2041015625,-40.0830078125,-41.3525390625,-41.0107421875,-36.2255859375,-31.4404296875,-30.7080078125,-30.9033203125,-30.2197265625,-29.9755859375,-30.1708984375,-30.7568359375,-30.9033203125,-30.9033203125,-30.5615234375,-30.8544921875,-30.8544921875,-31.3427734375,-32.1240234375,-33.7841796875,-34.6142578125,-35.1025390625,-36.2255859375,-37.2509765625,-38.1298828125,-37.7880859375,-39.0087890625,-39.5947265625,-39.8876953125,-38.8623046875,-33.4423828125,-30.1708984375,-30.5615234375,-30.4150390625,-31.1962890625,-30.1708984375,-30.6591796875,-31.9287109375,-31.4404296875,-31.0009765625,-30.9033203125,-30.8544921875,-31.8798828125,-32.2705078125,-33.8330078125,-34.6142578125,-35.5908203125,-36.4697265625,-38.3740234375,-38.9111328125,-39.8876953125,-39.8388671875,-40.6201171875,-41.3525390625,-40.5224609375,-37.8857421875,-33.1982421875,-30.9521484375,-31.0498046875,-31.1962890625,-30.6591796875,-30.6591796875,-30.8544921875,-31.9775390625,-31.7822265625,-31.5380859375,-32.3193359375,-32.4658203125,-32.5634765625,-33.9306640625,-35.8349609375,-36.5673828125,-37.6416015625,-38.2763671875,-39.6435546875,-40.8154296875,-41.2548828125,-41.6455078125,-42.0849609375,-42.9638671875,-43.5498046875,-42.3291015625,-37.7392578125,-33.2958984375,-32.3681640625,-32.2216796875,-32.0751953125,-31.7333984375,-31.8310546875,-32.2216796875,-33.3447265625,-32.8564453125,-32.6123046875,-32.5634765625,-32.7587890625,-33.4912109375,-35.4443359375,-35.9814453125,-37.4951171875,-38.9599609375,-39.5947265625,-40.7666015625,-41.6455078125,-42.2802734375,-42.3291015625,-43.2080078125,-43.2080078125,-44.8681640625,-43.4521484375,-39.6435546875,-34.9072265625,-33.4912109375,-33.8818359375,-34.1259765625,-33.6865234375,-34.1259765625,-33.8818359375,-34.5166015625,-35.2978515625,-34.0771484375,-33.9306640625,-34.5166015625,-34.8583984375,-36.4208984375,-37.7880859375,-38.5693359375,-39.6435546875,-40.0830078125,-41.9873046875,-42.0361328125,-42.5244140625,-43.5009765625,-43.6474609375,-44.4287109375,-44.2822265625,-40.7666015625,-36.4697265625,-34.8583984375,-34.8095703125,-34.2236328125,-34.6142578125,-34.4189453125,-34.9072265625,-35.5419921875,-36.0791015625,-35.6884765625,-35.6396484375,-35.2001953125,-36.3720703125,-37.3974609375,-38.8134765625,-39.6923828125,-40.0341796875,-41.3525390625,-42.7685546875,-43.5498046875,-43.8427734375,-44.7216796875,-44.5263671875,-45.3564453125,-44.4287109375,-39.7412109375,-36.0302734375,-34.6142578125,-34.7119140625,-35.3466796875,-35.8837890625,-35.5419921875,-36.4697265625,-36.4208984375,-36.7626953125,-36.2744140625,-36.7626953125,-36.8603515625,-37.4462890625,-38.1298828125,-39.3994140625,-40.9619140625,-42.1337890625,-42.4755859375,-44.1845703125,-44.9658203125,-45.0634765625,-46.1865234375,-46.2841796875,-46.8701171875,-47.7490234375,-43.3544921875,-38.3740234375,-36.0302734375,-36.2255859375,-36.2744140625,-36.3720703125,-35.7861328125,-35.7861328125,-36.6650390625,-37.5439453125,-36.9091796875,-36.9091796875,-36.6650390625,-37.5439453125,-38.3251953125,-39.7412109375,-40.9130859375,-41.4990234375,-42.8662109375,-43.7451171875,-45.1123046875,-45.5029296875,-45.7958984375,-46.0400390625,-46.8701171875,-47.5537109375,-47.9443359375,-45.2099609375,-39.9365234375,-36.4208984375,-36.3232421875,-36.4697265625,-36.2255859375,-36.8115234375,-36.3232421875,-37.0556640625,-37.2021484375,-37.6904296875,-37.9345703125,-37.2509765625,-38.1298828125,-38.1787109375,-40.2783203125,-41.0595703125,-41.3525390625,-42.7197265625,-43.1103515625,-45.4541015625,-45.1611328125,-45.4541015625,-46.4306640625,-46.2353515625,-47.4560546875,-46.9189453125,-43.2080078125,-38.3251953125,-36.8603515625,-36.5185546875,-36.9580078125,-37.2509765625,-37.2998046875,-37.9833984375,-38.8623046875,-38.0322265625,-37.8857421875,-37.5927734375,-38.2275390625,-39.0087890625,-39.7412109375,-41.3037109375,-42.1826171875,-42.3291015625,-43.4521484375,-44.0380859375,-44.6728515625,-45.6982421875,-46.0888671875,-46.9677734375,-46.9677734375,-44.0869140625,-39.9853515625,-37.2021484375,-36.1279296875,-36.4208984375,-36.5673828125,-37.0068359375,-37.0556640625,-38.1787109375,-37.7392578125,-37.8857421875,-37.9833984375,-37.6904296875,-37.9345703125,-39.2041015625,-40.0830078125,-41.6943359375,-41.8896484375,-43.0615234375,-43.4521484375,-45.0634765625,-45.4541015625,-45.9912109375,-46.0888671875,-46.8701171875,-46.1865234375,-41.7431640625,-38.0322265625,-35.6396484375,-35.8837890625,-35.8349609375,-35.8349609375,-35.8837890625,-35.8349609375,-36.8603515625,-36.1279296875,-36.6650390625,-36.2744140625,-37.0556640625,-36.4697265625,-38.3740234375,-38.9111328125,-39.8388671875,-40.8642578125,-41.8408203125,-42.8662109375,-43.7939453125,-44.1845703125,-43.7451171875,-45.0146484375,-45.1611328125,-45.2587890625,-42.2802734375,-37.3486328125,-34.6142578125,-35.1513671875,-35.0048828125,-34.0771484375,-34.1259765625,-34.4677734375,-35.1025390625,-35.9326171875,-35.1513671875,-35.2490234375,-34.9072265625,-35.0048828125,-36.3232421875,-37.2998046875,-38.6181640625,-39.6435546875,-40.2294921875,-40.8154296875,-41.2548828125,-42.4755859375,-42.6708984375,-43.3544921875,-43.5498046875,-44.1357421875,-41.7919921875,-37.0068359375,-33.7353515625,-33.4423828125,-33.8330078125,-33.3935546875,-33.5888671875,-33.7353515625,-34.6630859375,-34.6142578125,-33.9794921875,-34.2724609375,-33.3447265625,-34.1748046875,-34.6142578125,-36.0791015625,-37.4462890625,-37.9833984375,-39.1064453125,-39.5458984375,-40.5224609375,-41.6455078125,-41.9873046875,-42.2314453125,-43.1591796875,-43.4033203125,-39.7900390625,-35.7373046875,-33.5888671875,-32.4658203125,-32.9541015625,-32.6611328125,-32.9052734375,-33.6865234375,-34.0771484375,-34.3212890625,-33.9306640625,-33.3447265625,-33.9306640625,-33.2958984375,-35.0537109375,-36.2744140625,-37.7392578125,-38.4228515625,-39.1552734375,-40.2783203125,-41.5966796875,-42.3779296875,-43.0126953125,-43.1591796875,-43.6474609375,-44.7705078125,-43.2080078125,-37.6904296875,-33.6865234375,-32.9052734375,-33.0517578125,-33.0517578125,-33.7353515625,-33.0517578125,-33.3447265625,-34.8095703125,-33.9794921875,-33.8818359375,-33.6865234375,-34.0771484375,-34.7119140625,-35.5419921875,-36.8115234375,-38.1298828125,-38.9111328125,-39.8876953125,-41.1572265625,-41.4990234375,-42.2314453125,-42.6220703125,-42.7685546875,-43.5498046875,-44.3310546875,-44.1357421875,-38.9111328125,-34.1259765625,-32.9052734375,-32.3681640625,-32.7099609375,-32.2216796875,-32.2705078125,-32.8076171875,-33.3935546875,-33.5888671875,-33.9794921875,-33.0029296875,-32.9052734375,-33.1494140625,-35.0048828125,-36.0302734375,-36.8603515625,-37.8369140625,-38.6669921875,-40.0830078125,-39.9853515625,-41.5478515625,-41.8896484375,-41.4501953125,-42.6708984375,-43.4033203125,-43.8916015625,-40.1318359375,-34.7607421875,-32.2705078125,-32.1240234375,-32.2705078125,-32.1240234375,-32.0263671875,-32.4169921875,-33.1005859375,-33.2470703125,-32.9541015625,-33.0029296875,-32.6123046875,-32.6611328125,-33.9306640625,-35.3466796875,-35.9814453125,-36.6162109375,-36.9091796875,-38.3740234375,-38.8623046875,-40.1318359375,-40.2294921875,-40.4248046875,-41.6943359375,-42.1826171875,-39.5458984375,-34.1748046875,-31.1474609375,-30.8056640625,-30.7080078125,-30.9033203125,-30.8544921875,-31.1474609375,-31.8310546875,-31.9287109375,-31.8798828125,-32.3193359375,-31.7333984375,-31.2939453125,-33.1982421875,-34.4677734375,-35.2001953125,-36.3232421875,-37.1044921875,-37.8857421875,-39.2529296875,-39.4970703125,-40.2783203125,-40.4248046875,-41.4990234375,-42.2802734375,-41.4990234375,-37.1533203125,-31.6845703125,-30.2685546875,-30.5126953125,-30.4638671875,-30.3662109375,-29.8779296875,-30.6591796875,-31.2939453125,-31.5869140625,-31.1962890625,-31.6845703125,-31.2939453125,-32.3193359375,-33.1494140625,-34.3212890625,-35.1025390625,-36.3232421875,-37.0068359375,-37.7392578125,-39.4482421875,-39.7900390625,-40.0341796875,-41.1083984375,-41.3037109375,-42.7685546875,-41.9873046875,-37.8857421875,-31.6357421875,-29.9267578125,-30.2197265625,-29.9267578125,-30.3662109375,-29.9755859375,-30.2685546875,-30.7080078125,-30.7080078125,-30.4638671875,-30.6591796875,-30.5615234375,-31.4404296875,-32.5634765625,-33.6376953125,-34.3701171875,-36.0302734375,-37.2021484375,-37.8369140625,-39.1064453125,-39.5947265625,-39.9853515625,-40.3271484375,-41.5478515625,-41.8408203125,-43.0126953125,-40.8642578125,-34.9560546875,-31.7333984375,-31.3427734375,-31.0009765625,-30.9521484375,-31.3427734375,-31.7333984375,-32.6123046875,-33.2470703125,-33.1982421875,-33.1494140625,-33.1982421875,-33.0517578125,-33.9306640625,-35.5908203125,-36.7626953125,-37.9345703125,-38.6181640625,-39.7412109375,-40.8154296875,-41.5478515625,-42.0361328125,-42.4755859375,-42.7197265625,-43.0615234375,-44.1357421875,-42.0361328125,-36.0791015625,-33.9794921875,-33.1494140625,-33.9306640625,-33.6865234375,-33.6376953125,-33.5400390625,-35.5908203125,-35.0537109375,-34.8095703125,-34.7607421875,-34.8583984375,-35.1513671875,-35.6396484375,-36.9091796875,-37.7880859375,-38.3251953125,-39.4482421875,-40.2783203125,-41.4013671875,-41.9384765625,-41.9384765625,-41.9873046875,-43.1103515625,-43.3544921875,-41.8408203125,-36.6162109375,-33.0517578125,-32.8076171875,-32.8076171875,-33.2470703125,-32.9052734375,-33.1494140625,-33.8818359375,-34.7119140625,-34.4677734375,-34.4189453125,-34.6142578125,-34.5166015625,-35.1513671875,-36.1279296875,-37.5927734375,-38.3740234375,-39.0087890625,-40.0341796875,-41.1083984375,-41.5478515625,-42.9150390625,-42.8662109375,-43.2568359375,-44.1845703125,-43.6474609375,-39.4970703125,-34.7607421875,-32.5146484375,-33.2470703125,-32.5634765625,-32.7099609375,-32.9541015625,-33.3447265625,-33.9794921875,-33.8818359375,-33.4912109375,-33.4423828125,-33.3447265625,-34.1748046875,-34.4677734375,-36.2744140625,-37.1044921875,-37.4951171875,-38.4716796875,-39.7412109375,-40.6201171875,-41.1572265625,-41.6943359375,-41.5966796875,-42.5244140625,-43.5986328125,-43.3544921875,-41.4013671875,-35.9814453125,-32.1240234375,-31.7333984375,-32.0751953125,-31.9287109375,-31.1962890625,-31.3427734375,-32.1728515625,-32.9052734375,-32.7099609375,-32.4169921875,-32.4658203125,-31.9775390625,-33.1982421875,-34.6142578125,-35.6884765625,-36.5185546875,-37.6904296875,-38.3251953125,-39.9365234375,-40.1806640625,-40.6201171875,-40.8642578125,-41.4501953125,-42.1826171875,-42.5732421875,-42.7685546875,-39.0087890625,-33.5400390625,-31.0498046875,-30.7080078125,-30.7080078125,-31.2451171875,-31.1474609375,-31.3916015625,-31.9775390625,-32.5146484375,-33.0517578125,-32.6123046875,-32.4169921875,-31.7822265625,-33.5400390625,-34.5654296875,-35.6884765625,-35.7861328125,-36.8115234375,-38.1298828125,-38.3251953125,-39.0087890625,-39.0576171875,-39.7900390625,-40.8154296875,-41.9384765625,-40.6201171875,-37.0068359375,-32.0263671875,-30.9033203125,-30.8544921875,-31.0498046875,-30.5126953125,-30.3662109375,-31.5380859375,-32.1240234375,-32.6611328125,-32.2216796875,-31.3916015625,-30.7568359375,-32.0263671875,-33.5888671875,-34.2236328125,-34.8095703125,-35.5419921875,-36.5185546875,-37.9345703125,-38.7158203125,-39.4970703125,-39.8388671875,-40.5712890625,-41.1572265625,-41.6455078125,-37.7880859375,-32.1728515625,-29.6826171875,-29.6337890625,-30.0732421875,-29.6826171875,-29.7314453125,-30.1220703125,-30.7080078125,-31.9287109375,-30.8544921875,-31.3427734375,-30.6103515625,-31.9775390625,-32.2705078125,-34.1259765625,-34.9560546875,-35.5908203125,-36.2255859375,-37.6416015625,-38.6669921875,-39.7900390625,-39.7900390625,-40.1318359375,-40.9619140625,-41.7919921875,-40.7177734375,-36.5185546875,-31.1474609375,-29.4384765625,-30.0732421875,-30.1708984375,-30.4150390625,-29.8779296875,-30.6103515625,-31.3427734375,-31.8310546875,-31.5380859375,-31.3916015625,-31.2939453125,-31.4892578125,-32.6611328125,-34.3212890625,-34.1748046875,-34.9560546875,-36.0791015625,-37.0556640625,-38.2275390625,-39.8388671875,-39.9365234375,-39.7412109375,-40.5712890625,-41.4501953125,-41.4501953125,-37.3974609375,-32.4169921875,-29.5361328125,-29.6826171875,-30.1708984375,-29.9755859375,-30.1220703125,-29.8779296875,-30.5615234375,-31.0986328125,-31.0986328125,-31.0009765625,-30.7080078125,-31.1962890625,-32.4169921875,-33.3935546875,-34.7119140625,-34.9560546875,-36.1767578125,-36.8115234375,-37.6904296875,-38.5693359375,-38.2275390625,-38.9111328125,-39.9365234375,-40.0341796875,-38.2275390625,-33.7841796875,-29.2919921875,-29.8291015625,-29.4384765625,-29.7802734375,-29.8291015625,-29.2919921875,-30.4638671875,-31.1962890625,-31.0009765625,-31.0498046875,-31.0009765625,-30.1708984375,-31.2939453125,-32.1240234375,-33.4423828125,-34.6630859375,-35.2978515625,-35.9326171875,-37.1533203125,-37.7392578125,-38.4716796875,-39.0087890625,-39.5947265625,-40.3759765625,-39.5458984375,-35.4931640625,-31.0009765625,-29.0966796875,-28.9013671875,-29.3896484375,-29.1455078125,-28.5107421875,-29.8291015625,-30.1220703125,-30.0244140625,-29.5361328125,-29.3408203125,-29.2431640625,-29.9267578125,-30.9033203125,-31.9775390625,-32.9541015625,-34.7119140625,-34.9560546875,-36.2255859375,-36.2744140625,-37.0556640625,-38.0810546875,-38.3740234375,-39.1552734375,-39.6435546875,-37.6416015625,-32.5634765625,-28.5107421875,-27.6318359375,-27.4365234375,-27.4853515625,-27.4853515625,-27.5830078125,-27.4365234375,-28.3154296875,-28.9013671875,-27.6318359375,-27.9736328125,-28.6083984375,-28.4130859375,-29.7314453125,-31.0498046875,-32.0263671875,-32.3681640625,-33.6376953125,-34.6142578125,-35.2001953125,-36.0302734375,-35.8837890625,-36.8115234375,-37.2021484375,-38.0810546875,-36.0791015625,-31.1962890625,-27.9248046875,-26.6552734375,-26.7041015625,-26.9970703125,-26.0205078125,-26.7529296875,-26.8505859375,-27.4853515625,-26.7529296875,-26.8017578125,-26.9482421875,-26.7529296875,-27.2900390625,-28.4619140625,-29.6826171875,-30.9521484375,-31.5869140625,-31.9287109375,-33.3935546875,-34.3212890625,-34.8583984375,-35.2001953125,-35.8349609375,-36.2744140625,-37.2998046875,-34.4677734375,-29.0966796875,-26.2158203125,-25.3369140625,-25.4345703125,-25.6787109375,-25.3369140625,-26.1669921875,-26.4111328125,-26.2646484375,-26.1669921875,-26.1181640625,-25.9716796875,-26.6552734375,-27.2412109375,-28.8037109375,-30.3662109375,-30.7568359375,-31.7333984375,-32.8564453125,-34.1259765625,-35.4931640625,-35.7373046875,-36.3720703125,-37.0068359375,-37.7880859375,-39.0087890625,-36.0791015625,-31.1962890625,-28.2177734375,-27.4365234375,-28.1689453125,-28.3642578125,-28.4130859375,-28.3154296875,-30.2685546875,-31.2451171875,-30.2685546875,-30.3173828125,-30.3173828125,-30.8056640625,-31.1962890625,-33.0029296875,-34.0771484375,-33.9306640625,-34.8583984375,-35.6884765625,-36.5185546875,-37.8857421875,-37.5927734375,-38.3740234375,-38.8134765625,-40.0341796875,-40.8642578125,-40.4248046875,-36.7138671875,-31.8798828125,-29.1943359375,-28.2666015625,-28.2177734375,-28.4619140625,-27.3876953125,-27.4365234375,-28.7060546875,-29.6826171875,-29.1455078125,-28.8525390625,-29.1943359375,-29.7314453125,-30.5126953125,-31.7822265625,-32.5146484375,-33.0517578125,-33.5400390625,-34.3701171875,-34.9560546875,-36.2744140625,-36.1767578125,-36.5185546875,-37.3974609375,-38.1787109375,-39.3505859375,-38.7158203125,-33.5888671875,-29.1455078125,-27.4365234375,-27.2412109375,-27.4365234375,-27.0947265625,-26.8505859375,-26.7529296875,-28.0712890625,-27.4365234375,-27.1435546875,-27.6318359375,-27.3388671875,-28.0224609375,-28.4130859375,-29.6337890625,-30.0244140625,-30.9521484375,-32.5146484375,-33.0029296875,-33.8818359375,-34.0283203125,-34.2724609375,-35.7861328125,-35.8837890625,-36.2255859375,-33.5400390625,-28.9990234375,-26.6064453125,-25.8251953125,-25.7275390625,-25.9228515625,-25.4833984375,-25.6787109375,-25.8740234375,-26.8505859375,-25.9716796875,-25.8740234375,-26.0205078125,-26.4111328125,-27.0947265625,-28.2666015625,-28.9990234375,-30.1708984375,-30.9033203125,-32.4658203125,-32.7099609375,-34.1748046875,-34.5166015625,-34.7119140625,-35.1513671875,-36.2255859375,-34.4189453125,-28.8525390625,-25.9228515625,-24.9951171875,-25.5322265625,-24.9462890625,-24.9462890625,-25.1904296875,-25.6298828125,-26.6552734375,-26.3623046875,-25.7763671875,-25.9716796875,-26.8017578125,-26.8994140625,-28.2177734375,-29.0966796875,-29.5361328125,-30.4150390625,-31.3916015625,-32.6611328125,-32.8564453125,-34.1259765625,-34.7119140625,-34.5166015625,-35.8837890625,-35.7373046875,-35.2001953125,-30.9033203125,-26.1669921875,-24.8486328125,-25.1904296875,-24.6044921875,-24.7998046875,-24.1162109375,-25.3369140625,-26.6064453125,-26.4599609375,-25.6787109375,-25.8740234375,-26.0693359375,-26.9970703125,-28.1201171875,-28.9990234375,-30.1708984375,-30.8544921875,-31.5380859375,-32.4169921875,-32.9541015625,-34.3212890625,-34.8095703125,-35.5419921875,-35.7373046875,-37.0556640625,-37.4462890625,-35.1513671875,-30.2685546875,-26.2158203125,-24.8974609375,-25.3369140625,-25.0927734375,-25.2392578125,-24.7998046875,-25.5810546875,-26.0205078125,-26.0205078125,-26.0205078125,-26.1669921875,-25.9228515625,-26.9482421875,-28.0712890625,-29.4873046875,-30.8056640625,-31.3916015625,-31.6845703125,-33.2958984375,-34.5166015625,-34.9560546875,-34.8583984375,-35.6884765625,-35.8837890625,-35.8349609375,-32.9541015625,-28.0224609375,-25.6787109375,-24.8974609375,-24.5068359375,-25.8740234375,-25.6787109375,-25.3369140625,-26.8505859375,-27.2900390625,-26.7529296875,-26.1669921875,-26.3623046875,-26.6064453125,-27.6318359375,-28.9501953125,-29.7314453125,-30.6103515625,-31.4404296875,-33.0029296875,-33.7841796875,-34.5654296875,-35.2001953125,-35.6396484375,-36.4697265625,-37.2021484375,-34.3212890625,-28.9013671875,-26.2646484375,-25.3857421875,-25.5322265625,-25.3857421875,-25.3369140625,-25.2880859375,-26.4599609375,-27.0458984375,-26.5576171875,-26.3623046875,-26.3134765625,-26.5576171875,-27.4853515625,-28.7548828125,-30.1708984375,-30.9521484375,-31.6357421875,-33.0029296875,-34.0283203125,-35.2001953125,-35.0048828125,-35.2978515625,-35.9814453125,-36.7626953125,-37.4951171875,-34.7607421875,-29.6826171875,-26.0205078125,-25.3369140625,-24.5556640625,-25.1416015625,-24.4580078125,-25.1416015625,-25.9228515625,-26.6064453125,-26.5087890625,-25.9228515625,-25.8740234375,-26.4111328125,-27.6318359375,-29.0966796875,-29.9755859375,-30.8056640625,-30.9521484375,-32.3681640625,-33.3447265625,-34.2236328125,-34.5654296875,-35.0537109375,-34.5166015625,-35.2001953125,-36.6162109375,-37.1044921875,-34.6142578125,-28.9501953125,-25.8740234375,-24.4091796875,-24.5068359375,-24.1650390625,-23.5302734375,-23.7255859375,-24.8486328125,-25.8251953125,-25.6298828125,-25.4345703125,-25.2880859375,-25.4833984375,-26.7041015625,-27.9248046875,-28.3154296875,-29.7802734375,-30.9033203125,-31.7822265625,-32.8564453125,-33.0517578125,-33.5888671875,-34.0283203125,-34.7119140625,-35.7861328125,-36.3232421875,-36.0302734375,-31.2451171875,-26.7529296875,-25.1416015625,-24.7509765625,-24.9462890625,-24.4580078125,-24.6533203125,-25.1416015625,-25.9716796875,-26.6064453125,-26.4111328125,-26.0205078125,-25.8251953125,-26.5087890625,-27.5830078125,-28.4619140625,-28.8525390625,-30.1220703125,-30.9521484375,-31.9287109375,-32.3193359375,-33.0029296875,-33.2958984375,-34.2724609375,-34.0771484375,-34.5654296875,-31.3427734375,-27.1435546875,-23.4326171875,-23.6279296875,-23.4326171875,-23.7255859375,-22.8466796875,-23.6767578125,-24.4091796875,-24.4580078125,-24.8486328125,-24.2626953125,-24.6533203125,-24.4091796875,-25.6787109375,-27.2412109375,-27.5830078125,-28.4130859375,-29.9267578125,-30.9033203125,-31.7822265625,-32.1240234375,-32.9052734375,-33.9306640625,-34.3701171875,-35.1025390625,-33.1005859375,-28.4130859375,-23.5791015625,-23.3349609375,-23.1396484375,-23.7255859375,-23.1396484375,-23.3349609375,-23.7255859375,-24.7021484375,-24.6533203125,-24.7021484375,-24.1650390625,-24.6044921875,-25.0927734375,-26.5576171875,-27.8271484375,-28.2177734375,-29.2919921875,-30.3173828125,-31.5380859375,-31.7822265625,-32.3681640625,-32.2216796875,-32.3193359375,-33.6376953125,-34.1748046875,-31.7333984375,-26.3134765625,-23.5302734375,-22.8955078125,-23.0908203125,-22.2607421875,-22.5537109375,-22.2607421875,-23.1884765625,-23.2373046875,-23.1396484375,-23.7744140625,-23.2861328125,-23.4814453125,-23.9697265625,-24.8974609375,-26.4599609375,-27.0458984375,-28.1201171875,-29.3408203125,-30.9521484375,-31.0498046875,-31.7333984375,-32.2705078125,-32.8564453125,-33.6376953125,-33.8330078125,-31.1474609375,-26.1669921875,-23.2373046875,-22.4072265625,-22.8955078125,-23.3349609375,-22.5537109375,-22.5537109375,-23.3349609375,-23.8232421875,-23.0908203125,-23.0419921875,-22.9443359375,-23.0908203125,-24.3603515625,-25.4345703125,-26.6064453125,-28.0224609375,-28.4619140625,-29.4873046875,-30.8056640625,-30.9521484375,-31.7333984375,-32.0751953125,-32.7099609375,-33.5888671875,-34.0771484375,-34.0283203125,-30.7080078125,-25.3369140625,-23.3837890625,-23.1396484375,-22.2119140625,-22.1630859375,-22.3583984375,-22.1142578125,-23.3349609375,-23.7744140625,-23.6767578125,-23.3837890625,-23.3349609375,-23.6279296875,-24.1650390625,-25.5810546875,-26.9970703125,-27.6806640625,-28.9013671875,-30.0732421875,-30.9033203125,-31.2939453125,-31.2939453125,-32.3193359375,-32.8076171875,-33.7353515625,-34.8095703125,-35.4443359375,-33.6865234375,-28.9990234375,-25.0439453125,-22.7001953125,-22.7001953125,-22.5537109375,-23.0908203125,-22.5048828125,-23.1884765625,-24.2138671875,-24.2626953125,-23.4814453125,-23.5791015625,-23.4326171875,-24.1162109375,-25.6787109375,-26.9970703125,-27.7294921875,-28.9013671875,-29.7314453125,-31.1962890625,-31.8798828125,-32.3193359375,-32.7587890625,-33.0517578125,-34.2724609375,-35.0048828125,-35.1025390625,-32.2216796875,-26.4599609375,-23.4814453125,-22.7490234375,-22.3583984375,-22.7490234375,-22.2119140625,-22.7001953125,-23.5791015625,-24.3603515625,-23.9697265625,-24.2138671875,-23.9697265625,-24.2626953125,-25.3369140625,-26.6064453125,-27.4365234375,-28.0712890625,-29.0478515625,-30.3662109375,-31.1962890625,-32.2705078125,-31.9775390625,-33.1982421875,-34.3212890625,-34.9560546875,-33.5400390625,-28.6572265625,-24.8486328125,-23.5302734375,-23.4814453125,-23.4326171875,-23.9697265625,-23.7255859375,-24.7509765625,-25.1416015625,-25.3369140625,-25.1416015625,-24.9951171875,-24.8974609375,-25.8251953125,-27.0458984375,-27.9248046875,-29.1943359375,-30.2685546875,-31.1962890625,-31.5869140625,-32.1240234375,-33.1005859375,-33.2958984375,-34.1259765625,-35.1025390625,-35.5908203125,-33.5400390625,-28.6572265625,-24.7509765625,-23.6767578125,-23.2861328125,-23.2861328125,-23.2861328125,-23.0419921875,-23.8232421875,-24.6044921875,-24.2138671875,-24.8486328125,-23.4814453125,-23.7744140625,-24.8486328125,-25.8251953125,-27.4365234375,-28.0712890625,-28.6083984375,-29.4873046875,-30.5126953125,-31.1474609375,-31.4404296875,-31.5380859375,-32.7099609375,-33.1982421875,-33.6865234375,-29.9755859375,-25.0439453125,-22.1630859375,-21.4306640625,-21.1865234375,-20.9912109375,-20.9423828125,-21.4306640625,-21.7724609375,-22.4560546875,-22.1142578125,-21.6259765625,-21.7724609375,-21.4306640625,-23.1396484375,-23.4326171875,-25.0439453125,-24.9951171875,-25.3857421875,-26.5576171875,-27.8759765625,-27.9248046875,-28.8525390625,-29.4384765625,-29.2919921875,-30.2197265625,-28.9990234375,-24.8486328125,-20.6494140625,-18.8916015625,-18.9892578125,-18.7939453125,-18.5498046875,-18.1103515625,-18.0615234375,-19.5263671875,-19.3798828125,-18.2568359375,-18.9404296875,-18.5986328125,-18.7939453125,-19.6728515625,-20.6005859375,-21.4306640625,-22.0654296875,-22.5537109375,-23.4814453125,-24.6533203125,-24.9462890625,-25.2392578125,-25.8251953125,-25.6298828125,-23.9697265625,-19.3798828125,-16.5478515625,-16.0107421875,-15.9619140625,-15.0830078125,-15.4736328125,-15.6201171875,-16.8896484375,-16.6455078125,-16.4501953125,-16.4990234375,-16.3525390625,-16.7431640625,-17.4755859375,-18.7939453125,-20.2587890625,-20.9912109375,-22.0654296875,-22.5537109375,-23.3837890625,-24.4580078125,-24.1162109375,-24.9462890625,-25.2880859375,-24.7998046875,-20.8935546875,-17.1826171875,-15.3759765625,-15.2783203125,-15.3271484375,-14.9853515625,-14.8876953125,-15.5712890625,-15.7666015625,-15.5712890625,-15.6689453125,-15.4248046875,-16.4501953125,-15.8154296875,-17.0849609375,-17.9638671875,-18.5498046875,-19.7705078125,-20.2587890625,-21.2353515625,-22.3095703125,-23.3837890625,-23.3349609375,-24.2138671875,-24.8974609375,-25.2392578125,-23.1884765625,-18.1591796875,-14.4970703125,-14.4970703125,-14.5458984375,-14.2041015625,-13.8623046875,-13.4228515625,-14.0576171875,-14.8876953125,-14.3017578125,-14.3994140625,-14.2041015625,-14.3994140625,-14.7412109375,-16.1572265625,-17.3779296875,-18.3056640625,-19.0380859375,-19.8681640625,-21.6259765625,-21.6748046875,-22.4072265625,-22.8466796875,-23.2861328125,-23.9208984375,-25.2392578125,-25.4833984375,-23.7255859375,-17.7197265625,-15.1806640625,-15.0341796875,-14.3994140625,-14.3505859375,-13.4716796875,-12.7392578125,-13.5205078125,-14.2041015625,-14.4482421875,-13.7646484375,-14.5947265625,-13.9599609375,-15.4736328125,-16.0595703125,-18.0615234375,-17.9150390625,-19.0380859375,-19.9658203125,-20.5029296875,-21.6259765625,-22.2607421875,-23.2861328125,-23.2373046875,-23.9697265625,-25.3857421875,-25.9228515625,-24.2626953125,-18.7939453125,-16.8896484375,-16.3037109375,-15.5712890625,-15.2294921875,-15.0341796875,-14.2529296875,-14.8876953125,-15.7666015625,-16.0107421875,-15.8642578125,-16.2060546875,-15.9130859375,-17.0849609375,-18.4033203125,-19.7705078125,-20.8447265625,-21.3330078125,-22.3095703125,-23.0419921875,-23.9208984375,-24.1162109375,-24.4091796875,-25.0439453125,-26.0693359375,-26.9482421875,-26.7041015625,-23.2861328125,-18.5986328125,-17.8173828125,-17.1337890625,-16.1083984375,-15.4248046875,-14.5458984375,-14.7412109375,-15.1318359375,-15.5712890625,-15.4248046875,-15.2294921875,-15.7177734375,-15.3271484375,-16.2548828125,-17.8662109375,-18.1103515625,-19.1357421875,-19.6728515625,-20.6005859375,-21.2353515625,-22.7490234375,-23.1396484375,-22.8955078125,-23.5791015625,-24.7021484375,-25.9228515625,-26.8017578125,-27.6318359375,-24.7509765625,-19.5263671875,-18.2568359375,-18.3056640625,-17.5732421875,-17.2802734375,-16.8408203125,-16.7431640625,-17.3779296875,-18.4521484375,-18.6474609375,-18.9404296875,-19.4775390625,-19.8193359375,-21.0888671875,-22.2119140625,-23.7255859375,-25.0439453125,-26.1669921875,-26.8994140625,-27.8271484375,-29.3408203125,-29.8779296875,-30.5126953125,-31.2451171875,-31.1962890625,-32.3193359375,-34.4677734375,-34.3212890625,-32.3681640625,-26.5576171875,-23.8720703125,-22.7001953125,-22.5537109375,-23.3349609375,-22.4072265625,-22.4560546875,-23.3349609375,-24.3603515625,-23.9208984375,-23.3349609375,-24.0673828125,-24.0185546875,-25.3857421875,-26.3134765625,-27.1923828125,-28.2666015625,-28.6572265625,-29.7314453125,-31.3916015625,-32.0751953125,-32.5146484375,-32.8076171875,-33.6865234375,-33.9794921875,-34.9560546875,-36.2255859375,-36.9091796875,-34.0771484375,-28.5107421875,-25.8251953125,-25.1416015625,-24.9462890625,-24.5556640625,-24.7021484375,-24.1650390625,-25.2880859375,-25.9228515625,-25.8740234375,-26.2158203125,-26.0693359375,-25.3857421875,-27.5830078125,-28.1201171875,-28.9013671875,-29.9755859375,-30.7568359375,-31.6845703125,-33.1005859375,-33.5400390625,-34.0771484375,-34.3701171875,-34.9560546875,-35.9326171875,-36.6650390625,-36.6650390625,-34.1748046875,-29.1943359375,-26.7529296875,-25.6298828125,-25.6787109375,-25.5810546875,-25.5322265625,-25.6787109375,-26.8017578125,-27.5341796875,-26.9482421875,-26.9970703125,-27.3876953125,-27.0458984375,-28.4619140625,-29.3408203125,-30.5615234375,-31.1474609375,-31.9287109375,-33.0517578125,-33.6376953125,-34.2236328125,-35.2978515625,-35.0048828125,-35.5908203125,-36.3232421875,-37.1533203125,-37.4951171875,-36.3232421875,-32.4169921875,-27.6318359375,-26.7041015625,-25.6787109375,-25.1416015625,-25.0927734375,-25.3857421875,-25.0439453125,-26.1669921875,-26.4599609375,-26.4599609375,-25.7763671875,-26.4111328125,-26.2158203125,-27.6806640625,-28.2666015625,-29.7802734375,-30.1220703125,-30.9033203125,-32.3193359375,-32.8564453125,-33.6865234375,-33.8818359375,-34.8583984375,-35.0537109375,-35.7861328125,-36.9091796875,-37.3486328125,-34.3701171875,-29.5849609375,-26.4599609375,-25.4345703125,-24.4091796875,-25.1416015625,-24.3115234375,-24.2626953125,-25.0927734375,-25.9716796875,-25.6298828125,-25.5322265625,-25.2392578125,-25.8740234375,-26.2158203125,-27.0458984375,-28.2177734375,-29.0966796875,-30.1220703125,-30.3173828125,-31.6357421875,-32.2705078125,-33.2470703125,-32.9052734375,-33.7353515625,-34.7119140625,-35.5419921875,-34.1748046875,-29.8779296875,-25.3369140625,-24.1162109375,-23.7255859375,-23.4326171875,-23.5791015625,-22.9931640625,-24.0673828125,-24.9462890625,-24.5556640625,-24.4091796875,-24.0185546875,-24.0673828125,-24.5068359375,-25.0439453125,-26.5087890625,-26.9970703125,-27.7783203125,-28.8037109375,-30.1708984375,-30.2685546875,-30.6591796875,-31.4892578125,-31.9287109375,-32.5634765625,-30.8056640625,-26.9482421875,-22.7001953125,-21.0400390625,-21.6259765625,-22.3095703125,-21.7724609375,-21.6259765625,-22.2607421875,-23.3837890625,-23.0419921875,-22.4072265625,-22.4560546875,-22.3583984375,-22.8955078125,-24.5556640625,-25.4833984375,-25.9716796875,-26.7529296875,-27.9248046875,-28.9501953125,-29.5849609375,-30.8056640625,-31.0986328125,-32.0751953125,-31.2939453125,-28.6572265625,-24.0185546875,-21.1376953125,-20.5029296875,-20.6005859375,-20.1123046875,-19.8193359375,-20.3564453125,-21.1376953125,-21.5283203125,-20.5517578125,-21.2353515625,-21.1376953125,-21.3818359375,-22.1142578125,-23.5791015625,-24.6533203125,-25.1416015625,-26.3134765625,-27.0458984375,-27.9248046875,-28.6572265625,-28.6572265625,-29.4873046875,-30.1708984375,-30.5615234375,-29.6337890625,-24.5068359375,-20.4052734375,-19.0869140625,-18.3544921875,-18.0615234375,-18.4521484375,-18.3056640625,-18.4521484375,-19.0380859375,-19.3310546875,-18.8427734375,-18.6474609375,-18.9892578125,-20.2587890625,-21.2841796875,-22.7001953125,-23.6279296875,-24.6533203125,-25.2880859375,-26.1181640625,-26.8505859375,-27.6318359375,-28.3642578125,-28.9990234375,-29.4873046875,-30.3662109375,-30.4150390625,-27.3388671875,-22.0654296875,-19.7705078125,-19.0869140625,-18.6474609375,-18.7451171875,-18.5986328125,-18.8427734375,-19.4775390625,-19.7705078125,-19.6240234375,-19.0380859375,-19.4775390625,-20.0634765625,-20.7958984375,-21.9677734375,-22.8955078125,-24.1650390625,-24.4091796875,-24.9951171875,-26.0205078125,-27.2412109375,-28.1201171875,-27.9736328125,-28.6572265625,-29.3896484375,-28.4130859375,-24.1650390625,-20.1123046875,-19.1357421875,-19.1357421875,-18.5986328125,-18.3544921875,-18.2080078125,-19.5263671875,-19.4287109375,-20.1123046875,-19.3798828125,-19.2822265625,-19.4287109375,-19.6728515625,-21.1376953125,-22.0654296875,-23.1884765625,-24.3603515625,-25.0927734375,-26.3134765625,-27.1923828125,-27.2900390625,-28.2666015625,-28.8525390625,-29.4873046875,-28.7548828125,-25.6787109375,-20.3076171875,-19.2822265625,-19.0380859375,-18.8916015625,-18.6474609375,-18.7939453125,-19.6240234375,-20.0146484375,-20.0634765625,-20.3076171875,-19.5263671875,-19.7705078125,-21.3330078125,-21.7724609375,-22.9443359375,-23.8720703125,-24.9951171875,-25.6298828125,-26.3134765625,-27.5341796875,-27.7783203125,-29.0478515625,-28.6083984375,-29.5849609375,-30.6591796875,-29.6337890625,-24.5556640625,-19.9169921875,-18.6962890625,-18.9404296875,-18.3544921875,-18.3544921875,-17.8173828125,-18.2080078125,-19.3310546875,-19.1357421875,-18.7451171875,-19.3310546875,-18.7939453125,-20.0146484375,-20.7958984375,-21.8701171875,-23.2861328125,-23.6767578125,-24.7021484375,-25.7763671875,-27.5341796875,-27.1435546875,-28.0712890625,-28.2177734375,-29.0478515625,-30.3662109375,-31.0498046875,-31.0009765625,-27.4365234375,-21.5283203125,-18.7939453125,-18.3056640625,-18.0126953125,-17.8662109375,-17.6220703125,-17.8173828125,-18.0615234375,-18.8427734375,-18.4521484375,-17.9150390625,-18.1591796875,-18.1591796875,-18.6962890625,-20.6982421875,-21.7724609375,-22.3095703125,-22.8466796875,-24.1162109375,-24.8974609375,-26.3623046875,-26.3134765625,-27.3388671875,-28.0224609375,-28.4130859375,-27.8759765625,-23.7255859375,-18.9892578125,-17.0361328125,-16.9873046875,-16.4013671875,-16.3037109375,-16.2060546875,-16.3037109375,-16.8408203125,-17.8173828125,-17.4755859375,-16.9384765625,-16.4013671875,-17.3779296875,-19.0380859375,-20.4541015625,-21.8701171875,-22.3583984375,-22.8466796875,-22.3095703125,-22.7001953125,-23.7255859375,-24.7021484375,-25.7763671875,-26.6064453125,-26.3134765625,-22.4072265625,-17.3291015625,-15.4736328125,-14.9853515625,-14.8388671875,-14.3505859375,-14.6923828125,-14.9853515625,-16.4501953125,-15.8154296875,-15.5224609375,-15.3271484375,-15.7177734375,-16.6455078125,-17.6708984375,-18.4033203125,-18.5009765625,-20.1123046875,-21.5771484375,-21.8701171875,-23.2861328125,-23.5791015625,-24.3115234375,-24.8486328125,-25.4833984375,-26.2646484375,-27.3388671875,-25.7763671875,-19.8681640625,-15.5712890625,-14.7900390625,-14.4482421875,-14.3017578125,-13.9599609375,-13.7646484375,-14.2529296875,-15.4248046875,-15.7177734375,-15.4248046875,-15.3271484375,-15.8154296875,-16.0595703125,-18.0615234375,-19.5751953125,-20.1611328125,-21.2353515625,-22.1630859375,-22.9443359375,-24.0673828125,-24.3603515625,-24.5556640625,-24.9951171875,-26.3623046875,-27.3876953125,-27.4853515625,-25.7275390625,-20.1611328125,-16.4501953125,-15.3271484375,-15.2294921875,-14.6923828125,-14.7900390625,-15.0830078125,-14.8388671875,-15.9130859375,-15.9130859375,-15.3759765625,-15.5224609375,-16.4013671875,-17.5732421875,-18.1103515625,-19.4775390625,-20.3076171875,-21.0400390625,-21.6748046875,-23.2373046875,-24.0185546875,-24.5068359375,-25.2392578125,-25.7275390625,-26.9970703125,-26.4599609375,-22.6025390625,-18.2568359375,-16.0595703125,-16.3037109375,-15.9130859375,-16.0595703125,-16.1572265625,-16.2060546875,-16.9384765625,-16.9384765625,-17.4755859375,-17.8662109375,-17.4267578125,-18.1103515625,-19.4287109375,-20.4541015625,-21.2841796875,-22.5048828125,-23.5302734375,-24.1162109375,-25.1416015625,-25.1416015625,-26.0205078125,-26.0693359375,-27.3876953125,-27.6806640625,-27.3876953125,-22.3583984375,-18.5498046875,-17.2314453125,-16.9873046875,-16.9384765625,-16.1572265625,-16.5478515625,-17.3291015625,-17.7197265625,-17.6220703125,-17.6708984375,-17.9150390625,-17.7197265625,-18.3056640625,-19.7216796875,-20.4541015625,-21.9677734375,-22.6513671875,-23.5791015625,-24.7509765625,-24.7021484375,-25.9716796875,-26.4111328125,-26.8017578125,-27.8271484375,-28.0712890625,-27.8271484375,-23.4326171875,-18.4033203125,-17.5244140625,-17.2314453125,-17.1826171875,-16.6455078125,-16.1572265625,-16.5478515625,-17.3779296875,-17.2802734375,-17.8173828125,-17.8173828125,-18.1591796875,-18.4521484375,-19.7705078125,-20.4541015625,-21.9189453125,-22.5537109375,-23.8232421875,-24.3603515625,-25.2880859375,-25.8740234375,-26.5087890625,-27.2412109375,-27.2900390625,-27.8759765625,-28.5107421875,-25.2392578125,-20.6982421875,-18.5498046875,-18.5986328125,-18.2568359375,-18.0615234375,-18.0126953125,-18.0126953125,-18.4521484375,-19.7216796875,-19.4287109375,-18.7451171875,-18.7939453125,-19.0869140625,-20.2587890625,-21.4306640625,-22.3583984375,-23.1396484375,-23.5791015625,-24.7998046875,-25.5322265625,-26.5087890625,-26.2646484375,-27.3876953125,-27.7783203125,-28.6572265625,-27.3876953125,-23.7255859375,-19.5263671875,-18.1103515625,-18.0126953125,-18.0126953125,-18.1591796875,-17.6708984375,-18.6962890625,-19.0869140625,-18.9892578125,-18.6962890625,-18.8427734375,-18.7451171875,-19.7705078125,-20.6005859375,-22.2607421875,-23.3349609375,-23.5302734375,-25.0927734375,-26.4599609375,-27.1435546875,-27.6318359375,-27.8271484375,-28.6572265625,-29.4873046875,-30.1220703125,-29.0478515625,-23.7744140625,-19.7216796875,-18.4521484375,-18.4521484375,-18.5986328125,-18.5986328125,-18.6474609375,-18.6962890625,-20.2099609375,-20.6005859375,-19.8193359375,-19.8193359375,-20.1123046875,-20.9423828125,-21.9189453125,-23.6767578125,-24.4091796875,-25.2880859375,-25.9716796875,-27.0458984375,-28.3154296875,-27.9736328125,-28.5595703125,-29.3896484375,-30.4638671875,-31.5380859375,-32.2705078125,-28.6572265625,-23.0419921875,-19.7705078125,-19.3310546875,-19.5751953125,-19.3798828125,-18.6474609375,-18.6962890625,-19.6728515625,-20.2587890625,-20.3564453125,-20.5029296875,-20.0634765625,-20.3564453125,-21.2841796875,-23.1884765625,-24.0185546875,-25.2880859375,-25.6298828125,-26.9970703125,-28.2177734375,-28.2177734375,-29.4873046875,-29.5361328125,-29.8779296875,-30.3662109375,-31.8798828125,-33.0517578125,-32.7587890625,-30.9033203125,-24.7021484375,-21.2841796875,-19.3798828125,-19.3798828125,-19.7705078125,-19.2822265625,-19.8193359375,-20.6494140625,-21.2353515625,-21.2841796875,-20.8935546875,-20.4052734375,-20.9423828125,-21.3330078125,-23.5791015625,-23.6279296875,-24.5068359375,-25.7275390625,-26.4111328125,-27.5341796875,-27.8271484375,-28.7060546875,-29.1943359375,-29.8291015625,-30.1220703125,-31.5869140625,-32.7099609375,-31.2451171875,-26.8994140625,-22.2607421875,-20.2099609375,-19.3310546875,-19.3798828125,-19.5263671875,-19.5263671875,-19.5751953125,-21.0400390625,-21.6259765625,-21.1376953125,-21.2841796875,-20.6005859375,-21.2353515625,-22.6513671875,-23.7744140625,-24.2626953125,-25.1416015625,-26.1181640625,-27.1923828125,-28.8525390625,-29.4873046875,-29.8291015625,-30.0732421875,-30.3173828125,-30.9033203125,-31.8798828125,-31.8310546875,-29.4873046875,-23.7255859375,-20.7470703125,-20.0146484375,-19.4287109375,-19.4287109375,-19.3798828125,-19.7216796875,-20.9912109375,-21.7724609375,-21.8701171875,-21.3818359375,-21.2353515625,-21.2841796875,-22.6025390625,-24.0673828125,-24.6044921875,-25.7275390625,-26.2646484375,-27.7783203125,-28.8525390625,-29.0478515625,-29.9755859375,-30.3662109375,-30.8544921875,-31.9775390625,-32.6611328125,-33.4423828125,-32.8076171875,-27.7783203125,-23.0419921875,-21.0400390625,-21.0400390625,-20.7470703125,-20.4052734375,-20.5029296875,-20.7470703125,-21.6748046875,-21.8701171875,-21.5771484375,-22.1630859375,-22.0166015625,-22.1142578125,-23.5791015625,-24.2138671875,-25.0927734375,-26.2158203125,-27.3876953125,-28.2666015625,-28.9501953125,-28.9990234375,-29.8779296875,-30.5126953125,-30.9033203125,-31.4892578125,-32.7587890625,-31.0986328125,-27.0947265625,-22.8466796875,-20.8447265625,-20.5517578125,-20.1611328125,-20.7470703125,-19.7216796875,-20.5517578125,-21.4306640625,-21.8701171875,-21.0888671875,-20.6494140625,-21.0888671875,-21.7236328125,-22.5048828125,-23.6767578125,-24.4580078125,-24.8974609375,-25.6787109375,-26.7041015625,-27.0458984375,-27.7783203125,-27.8759765625,-28.4619140625,-29.4873046875,-29.9755859375,-28.1201171875,-24.3115234375,-20.6494140625,-19.8193359375,-19.8193359375,-20.0634765625,-19.1845703125,-19.0380859375,-19.2822265625,-20.1611328125,-20.5517578125,-20.3564453125,-20.2587890625,-19.0869140625,-19.4287109375,-20.3076171875,-21.6259765625,-23.1884765625,-23.4814453125,-23.7744140625,-24.9951171875,-26.1181640625,-26.9482421875,-27.4365234375,-27.7783203125,-28.2177734375,-28.7060546875,-27.0458984375,-22.2119140625,-18.7451171875,-17.2802734375,-17.2802734375,-16.9384765625,-17.6708984375,-17.3291015625,-18.3056640625,-19.0869140625,-19.0380859375,-18.4033203125,-18.3544921875,-19.0380859375,-19.8681640625,-20.8447265625,-21.6259765625,-23.1396484375,-23.8232421875,-24.1650390625,-25.5810546875,-26.5087890625,-26.9970703125,-27.0458984375,-27.6318359375,-27.9736328125,-28.8525390625,-28.1689453125,-23.0908203125,-19.5263671875,-17.6708984375,-18.1591796875,-17.5244140625,-17.1337890625,-17.4267578125,-18.1591796875,-18.5009765625,-18.5498046875,-18.4033203125,-18.5986328125
