PPG_subj_02,33,F,Y,Non-diabetic,99,34.3635,Forehead,0.185546875,0.185546875,0.185546875,0.185546875,0.185546875,0.185546875,131.0888671875,20.8251953125,21.9970703125,20.7275390625,20.3857421875,19.8486328125,20.0439453125,20.2880859375,18.4814453125,18.8232421875,17.7001953125,17.5048828125,16.0888671875,15.2099609375,15.3564453125,13.6962890625,13.6962890625,11.9384765625,11.7431640625,13.6474609375,15.6982421875,19.5556640625,20.6787109375,21.7529296875,22.7294921875,23.3154296875,22.7783203125,21.8505859375,21.8994140625,20.8740234375,21.2158203125,20.2880859375,19.6533203125,19.7021484375,17.6513671875,17.3583984375,16.2353515625,14.6240234375,14.4775390625,13.5498046875,13.3056640625,12.9150390625,13.6962890625,16.1865234375,19.2138671875,20.9716796875,21.5576171875,23.5595703125,23.3642578125,23.6083984375,22.7783203125,21.3623046875,21.9482421875,21.4111328125,21.2646484375,20.0439453125,18.8232421875,18.8720703125,17.4560546875,16.9189453125,15.0634765625,14.7216796875,13.6962890625,12.6220703125,12.8173828125,12.4755859375,16.0888671875,18.3349609375,19.6533203125,21.6552734375,20.8251953125,22.3876953125,20.8740234375,21.0205078125,20.2880859375,19.3115234375,20.2880859375,19.3115234375,19.2626953125,17.0166015625,16.4306640625,15.9912109375,13.8427734375,13.8916015625,12.4755859375,12.5732421875,11.9873046875,12.7685546875,16.2841796875,18.1884765625,19.8974609375,19.3603515625,20.9716796875,21.0205078125,19.4580078125,19.9951171875,18.7744140625,19.7021484375,18.9697265625,18.4814453125,18.5302734375,17.1630859375,17.4072265625,16.0400390625,15.2587890625,13.5009765625,13.5986328125,12.9150390625,11.8896484375,15.0146484375,16.5283203125,19.9462890625,21.2646484375,21.4111328125,22.7783203125,21.7529296875,22.0947265625,21.6064453125,20.8740234375,21.3134765625,20.2880859375,20.4833984375,19.0673828125,18.4814453125,17.7001953125,16.6259765625,15.9912109375,14.4775390625,14.2822265625,13.2080078125,13.2080078125,14.0380859375,16.8212890625,20.2880859375,21.4111328125,23.4130859375,23.9501953125,24.3408203125,24.8779296875,23.8037109375,23.4130859375,22.7783203125,22.5341796875,22.2412109375,20.1904296875,20.4833984375,19.3603515625,18.4814453125,17.3095703125,15.6982421875,16.1865234375,14.6240234375,14.1357421875,13.7451171875,16.6748046875,19.2626953125,20.8251953125,22.9736328125,23.2177734375,25.2685546875,24.8779296875,24.3408203125,24.0478515625,22.9248046875,23.3154296875,22.4365234375,22.2900390625,21.3623046875,20.3857421875,18.8720703125,17.5048828125,16.6748046875,15.2587890625,14.9169921875,14.3798828125,12.4267578125,13.0126953125,13.5986328125,17.3583984375,19.0673828125,21.3134765625,23.0712890625,22.2412109375,24.3896484375,22.6318359375,22.0458984375,21.7041015625,21.5576171875,21.2158203125,20.2392578125,19.7509765625,17.8955078125,17.3583984375,16.3818359375,14.1845703125,15.0146484375,13.2568359375,13.1591796875,12.0849609375,12.0361328125,15.3076171875,18.0908203125,19.8974609375,20.7275390625,22.6318359375,23.2666015625,21.5576171875,21.9482421875,20.6298828125,21.4111328125,21.3623046875,19.8486328125,19.7021484375,18.3349609375,17.9443359375,15.9423828125,15.8935546875,14.4775390625,13.3544921875,13.5498046875,11.3525390625,12.0361328125,11.4501953125,14.0380859375,17.7978515625,20.0927734375,22.0458984375,22.2900390625,23.7548828125,23.3154296875,22.4365234375,23.1201171875,21.1181640625,21.6064453125,20.6298828125,20.3857421875,19.9462890625,17.3583984375,17.2607421875,15.8935546875,15.0634765625,14.1357421875,13.2568359375,13.0615234375,11.8408203125,11.3525390625,11.0595703125,14.5751953125,17.1142578125,18.4814453125,21.1669921875,21.1181640625,23.6572265625,22.8759765625,21.7529296875,21.9482421875,19.9951171875,21.4111328125,20.5322265625,19.7998046875,18.9697265625,17.6025390625,16.7724609375,14.8193359375,14.7216796875,12.9150390625,11.8408203125,11.5478515625,9.9853515625,9.8388671875,8.8134765625,11.1572265625,13.5986328125,16.8212890625,19.2138671875,19.1650390625,21.0693359375,21.4111328125,20.5322265625,20.2880859375,19.0185546875,18.9697265625,18.6767578125,18.4326171875,16.4794921875,16.1865234375,14.2822265625,13.3056640625,13.2080078125,11.0595703125,11.3525390625,10.0830078125,9.0087890625,8.5693359375,6.6162109375,9.4970703125,12.6708984375,15.7958984375,16.9677734375,17.9931640625,18.5791015625,18.2373046875,17.7001953125,16.2353515625,16.6259765625,16.7236328125,15.6494140625,15.9912109375,13.9892578125,14.0380859375,12.0849609375,11.4013671875,11.3037109375,9.6923828125,9.7900390625,8.4228515625,7.9833984375,7.2998046875,9.1064453125,12.7197265625,14.3310546875,16.8212890625,16.6748046875,17.9443359375,18.5302734375,17.1142578125,17.5048828125,17.3095703125,16.7724609375,16.3818359375,15.7470703125,14.9169921875,14.3798828125,13.5986328125,11.2548828125,11.0107421875,10.5224609375,8.7158203125,9.0576171875,6.9580078125,7.6416015625,7.6904296875,10.6201171875,14.7705078125,16.2353515625,17.8955078125,18.7255859375,19.1162109375,19.2626953125,18.4326171875,18.3349609375,17.4560546875,17.8466796875,16.3330078125,16.6748046875,15.9423828125,13.5009765625,13.2568359375,11.7431640625,11.4990234375,10.3759765625,9.1552734375,8.7158203125,8.3740234375,8.4716796875,10.6201171875,13.8916015625,16.0888671875,17.3095703125,19.2138671875,18.8720703125,20.5322265625,18.9208984375,18.0908203125,18.2373046875,16.5771484375,17.3583984375,16.9677734375,15.6982421875,14.8681640625,13.8916015625,13.0126953125,11.1572265625,11.2548828125,9.3017578125,9.3017578125,7.7392578125,6.9580078125,8.9599609375,12.1337890625,14.7705078125,16.8212890625,16.6748046875,18.8232421875,19.3603515625,18.1396484375,17.7490234375,17.8955078125,16.8701171875,15.8447265625,16.7724609375,15.8935546875,14.8193359375,13.7451171875,13.0126953125,12.4267578125,10.6689453125,9.8876953125,9.3505859375,7.9833984375,8.5205078125,10.9130859375,14.8681640625,16.4794921875,18.0908203125,18.3837890625,20.2392578125,19.3115234375,17.9931640625,18.6279296875,17.1630859375,18.5302734375,16.8212890625,16.2353515625,15.8447265625,13.7451171875,13.5009765625,12.7197265625,11.3037109375,10.5224609375,9.4482421875,9.7900390625,9.9853515625,12.8662109375,15.0146484375,18.4814453125,19.3603515625,19.7998046875,21.7041015625,20.1416015625,19.8486328125,19.4091796875,18.5791015625,18.5302734375,16.6748046875,17.7490234375,16.4794921875,15.4052734375,14.0869140625,13.4521484375,13.1591796875,11.2060546875,10.5712890625,9.3994140625,8.7646484375,8.9599609375,10.6201171875,14.4775390625,16.1376953125,19.3603515625,19.4580078125,20.5810546875,21.4599609375,19.7998046875,20.0439453125,19.6044921875,18.8232421875,18.6279296875,18.7255859375,17.2607421875,16.2353515625,15.4541015625,13.2568359375,13.4033203125,11.5478515625,10.2783203125,10.4248046875,8.4716796875,8.5693359375,9.0087890625,12.0849609375,15.6005859375,16.8212890625,19.2138671875,19.8974609375,20.5322265625,20.9716796875,19.5556640625,19.8974609375,19.2626953125,19.4580078125,18.6279296875,17.5048828125,16.9677734375,14.8193359375,14.3310546875,13.0615234375,12.2314453125,11.1572265625,9.9853515625,9.9365234375,8.7646484375,8.0810546875,8.6181640625,10.8154296875,14.4775390625,16.2353515625,18.1884765625,18.2861328125,19.6044921875,19.1162109375,16.9189453125,17.5537109375,15.8447265625,16.5771484375,16.4794921875,15.1611328125,14.7705078125,12.9638671875,12.5244140625,11.0595703125,10.2294921875,9.3017578125,8.9111328125,7.9833984375,6.7138671875,7.5927734375,9.1552734375,13.1103515625,15.4541015625,15.8447265625,17.6025390625,17.7001953125,18.6279296875,17.2119140625,16.4306640625,17.1142578125,16.1865234375,15.9423828125,15.4052734375,14.1845703125,13.0615234375,12.0361328125,11.7919921875,10.0341796875,10.1806640625,8.4228515625,7.6904296875,7.4462890625,7.3486328125,11.0595703125,13.3544921875,15.9423828125,17.3583984375,17.9931640625,20.0927734375,20.0927734375,18.5302734375,17.6513671875,17.7001953125,17.5048828125,16.1376953125,16.6259765625,14.8681640625,14.5751953125,13.4521484375,12.2802734375,11.7431640625,9.3994140625,10.5224609375,9.3994140625,8.6181640625,7.8857421875,9.5947265625,12.1826171875,14.3310546875,17.3583984375,17.8955078125,19.4580078125,20.5810546875,18.7255859375,19.4091796875,17.6025390625,18.2861328125,17.1142578125,16.5283203125,16.8701171875,15.2587890625,14.7705078125,13.7451171875,12.2314453125,11.5966796875,10.9619140625,10.0341796875,7.9833984375,7.7880859375,6.8603515625,8.5205078125,12.3779296875,14.2333984375,17.0654296875,17.5048828125,19.5556640625,19.8974609375,18.9208984375,19.0673828125,18.0419921875,17.9443359375,17.3095703125,16.9677734375,15.8935546875,14.7216796875,14.0869140625,11.7919921875,12.0361328125,10.3271484375,9.3505859375,8.8623046875,6.5673828125,6.9580078125,6.9580078125,9.2529296875,12.2314453125,15.2099609375,16.9677734375,17.4560546875,18.7255859375,16.8701171875,17.0654296875,16.7236328125,15.4541015625,16.5771484375,15.0146484375,15.1611328125,13.6962890625,12.6220703125,12.2314453125,10.3271484375,10.3271484375,8.0322265625,8.4716796875,7.1044921875,5.4931640625,7.4462890625,8.9111328125,13.6962890625,15.0634765625,16.2353515625,17.7490234375,17.8466796875,17.5537109375,15.9423828125,16.1376953125,16.0400390625,14.8193359375,15.2099609375,14.1357421875,14.4287109375,12.1337890625,11.4990234375,11.1572265625,10.0830078125,10.0830078125,8.0810546875,8.2275390625,7.2021484375,7.9345703125,11.8408203125,13.8916015625,17.1142578125,18.1396484375,18.6279296875,20.1416015625,18.0419921875,18.9697265625,18.2373046875,18.1884765625,17.5048828125,17.5048828125,17.1142578125,14.6240234375,15.1123046875,13.2568359375,12.3779296875,11.8896484375,10.8154296875,10.1318359375,8.8134765625,8.5205078125,8.3251953125,10.8154296875,14.5263671875,15.6982421875,18.9208984375,20.2392578125,20.4345703125,21.8505859375,19.7998046875,20.5322265625,19.8974609375,19.3115234375,19.9462890625,18.1396484375,17.4072265625,16.2841796875,16.2841796875,13.9892578125,14.5751953125,12.6708984375,10.6689453125,11.0107421875,9.3994140625,9.8876953125,10.6201171875,13.8427734375,17.3583984375,18.7744140625,21.0205078125,21.5576171875,22.9736328125,22.1923828125,21.4111328125,20.5322265625,19.6044921875,19.8974609375,18.5791015625,18.4814453125,17.2607421875,15.4541015625,15.2587890625,13.9892578125,13.8427734375,11.8408203125,11.0107421875,10.8154296875,9.6923828125,10.2783203125,12.1826171875,15.7958984375,17.9443359375,18.9697265625,20.7275390625,20.3369140625,21.8505859375,20.0439453125,19.6044921875,19.3115234375,18.9208984375,18.5302734375,17.3095703125,17.4560546875,15.8447265625,14.5751953125,14.2822265625,12.6708984375,12.5244140625,11.0595703125,10.3759765625,10.8154296875,11.6943359375,15.6494140625,18.3837890625,20.2880859375,21.1181640625,21.4111328125,22.5830078125,21.1669921875,20.5810546875,19.3115234375,19.9951171875,19.2626953125,17.7978515625,18.0908203125,16.3818359375,16.6748046875,15.0146484375,13.5498046875,13.9892578125,12.1337890625,11.9873046875,11.3525390625,14.1845703125,17.5537109375,18.0419921875,21.4599609375,21.7529296875,22.7294921875,22.5341796875,20.9228515625,21.2158203125,21.0205078125,20.7763671875,19.0185546875,19.1162109375,18.0908203125,16.7724609375,16.6748046875,13.9892578125,14.4775390625,12.8173828125,11.4501953125,11.1572265625,9.7412109375,11.5478515625,13.6474609375,17.0166015625,18.7255859375,20.7275390625,21.8994140625,21.9482421875,22.8271484375,20.9228515625,21.7041015625,20.3857421875,18.8232421875,20.3369140625,18.5791015625,18.8232421875,17.2119140625,15.4052734375,14.5751953125,13.8427734375,13.1103515625,11.4501953125,11.3037109375,10.8642578125,9.1064453125,12.1826171875,14.5263671875,18.7744140625,20.0927734375,20.8740234375,22.1435546875,23.0224609375,22.3388671875,20.7763671875,21.0693359375,20.7763671875,19.6044921875,20.5322265625,18.6279296875,18.8232421875,17.3583984375,16.4306640625,16.5771484375,13.2080078125,14.4775390625,13.1103515625,12.7197265625,12.3291015625,13.5986328125,17.3583984375,19.4580078125,21.9482421875,21.6552734375,23.5595703125,23.5107421875,21.9482421875,22.2900390625,21.1181640625,21.8994140625,20.9228515625,20.1904296875,20.0439453125,17.7978515625,18.0419921875,17.5048828125,16.1865234375,15.0146484375,13.8916015625,13.2568359375,12.8173828125,14.3798828125,15.6005859375,19.9951171875,21.8505859375,21.6552734375,24.0478515625,23.8037109375,24.5849609375,23.5107421875,22.3388671875,24.0478515625,22.8271484375,22.8759765625,20.8740234375,20.7275390625,19.7021484375,17.6513671875,17.7978515625,16.3818359375,15.9423828125,14.7216796875,14.5751953125,15.6494140625,17.5537109375,21.9482421875,22.1923828125,24.8291015625,25.4150390625,25.0732421875,26.1474609375,23.9013671875,25.3662109375,23.9990234375,23.3642578125,23.4619140625,22.6318359375,22.0458984375,20.4345703125,19.7509765625,18.3349609375,18.1884765625,17.1630859375,14.9658203125,15.3564453125,14.7216796875,16.4794921875,18.9697265625,20.9716796875,23.7548828125,23.4619140625,26.1474609375,25.9521484375,25.4150390625,25.0244140625,24.8291015625,24.1455078125,23.8037109375,23.5107421875,22.1435546875,21.7529296875,20.7763671875,19.3115234375,18.5302734375,17.8955078125,16.5283203125,15.6494140625,14.2333984375,14.5263671875,15.3564453125,17.9443359375,20.9716796875,23.4130859375,24.2919921875,24.4384765625,25.1220703125,24.3408203125,24.2431640625,23.1201171875,21.6064453125,22.3388671875,21.5576171875,20.5322265625,19.8486328125,18.8720703125,17.6513671875,16.4306640625,15.6982421875,14.8681640625,14.2822265625,13.1103515625,12.8173828125,13.5986328125,16.5283203125,19.6533203125,21.2646484375,22.5341796875,22.8759765625,23.8037109375,23.0224609375,21.9970703125,21.9970703125,21.8017578125,21.2646484375,20.7763671875,20.0927734375,19.5556640625,18.1396484375,17.3095703125,16.8701171875,15.5517578125,15.0146484375,13.4521484375,13.3544921875,13.4033203125,15.5029296875,18.7744140625,21.2646484375,22.8271484375,23.0712890625,23.8037109375,23.9990234375,22.9736328125,22.0947265625,22.2900390625,21.7529296875,21.7041015625,20.6787109375,20.1904296875,19.3603515625,18.6279296875,17.9443359375,16.5283203125,16.5283203125,15.3564453125,13.7451171875,13.2568359375,14.9169921875,17.7490234375,20.6787109375,22.0947265625,23.6572265625,24.7802734375,24.9267578125,24.4873046875,23.9013671875,23.3642578125,23.4130859375,23.3154296875,22.3388671875,21.5576171875,21.3134765625,19.8486328125,18.8720703125,17.6513671875,16.3818359375,15.7958984375,14.4775390625,13.9892578125,14.1845703125,14.7705078125,17.6025390625,20.1904296875,22.6806640625,23.7548828125,24.5849609375,25.0732421875,24.6337890625,23.7548828125,23.0712890625,23.2177734375,22.6806640625,22.1923828125,21.5576171875,20.4833984375,18.9697265625,18.3349609375,17.1142578125,15.8935546875,14.7216796875,14.1357421875,13.3056640625,12.9638671875,13.0615234375,15.5517578125,18.9697265625,20.3857421875,22.1435546875,23.1201171875,23.4130859375,23.5107421875,21.6552734375,22.4365234375,21.3134765625,21.5576171875,20.7275390625,19.7998046875,19.4091796875,17.6513671875,16.9189453125,15.8447265625,15.6494140625,14.5263671875,13.3544921875,12.9638671875,12.1337890625,13.7451171875,16.7724609375,18.9208984375,20.7275390625,21.8017578125,23.0712890625,22.8759765625,21.8994140625,21.6064453125,21.6064453125,21.2646484375,19.6533203125,21.0693359375,19.2138671875,18.4814453125,17.1142578125,16.3818359375,15.6494140625,14.3798828125,14.1845703125,12.9150390625,12.7685546875,13.2568359375,16.7236328125,19.8974609375,21.7529296875,23.1689453125,23.9990234375,23.9501953125,24.3408203125,22.0947265625,22.7783203125,22.0947265625,21.8994140625,21.8994140625,21.2646484375,20.3369140625,19.2626953125,18.4326171875,17.1142578125,16.4794921875,15.5029296875,14.3310546875,14.1845703125,12.6220703125,12.8173828125,15.3564453125,17.8466796875,20.5322265625,21.9482421875,23.3154296875,23.5595703125,23.9013671875,23.4130859375,22.6318359375,22.5830078125,22.2900390625,22.5341796875,22.2412109375,20.9716796875,20.1416015625,19.0185546875,18.0419921875,16.9677734375,15.6005859375,14.3798828125,13.4033203125,13.5009765625,11.5966796875,12.0849609375,14.7216796875,17.9443359375,20.1904296875,21.8505859375,22.5830078125,23.3642578125,24.0966796875,22.8759765625,22.1923828125,21.7041015625,22.0458984375,21.3134765625,20.9228515625,20.6298828125,18.8232421875,17.7978515625,17.1630859375,15.8447265625,14.9658203125,14.2822265625,13.5498046875,11.8896484375,11.2548828125,11.0595703125,11.0107421875,13.9892578125,16.9189453125,18.8232421875,20.5810546875,21.3134765625,22.1923828125,22.0458984375,21.4111328125,20.6298828125,19.9951171875,20.0927734375,19.6533203125,18.9208984375,18.2373046875,16.8701171875,15.8447265625,14.6240234375,13.5498046875,12.6708984375,11.2060546875,11.0595703125,9.5458984375,9.1064453125,9.0087890625,10.4736328125,13.8427734375,17.3095703125,18.3837890625,19.4091796875,20.7763671875,20.0439453125,18.9208984375,18.9697265625,18.4814453125,18.0419921875,17.8466796875,17.4072265625,16.9189453125,15.5029296875,14.2333984375,13.9404296875,12.7685546875,11.4501953125,11.2060546875,10.0830078125,7.9345703125,8.5205078125,9.2041015625,11.6455078125,14.4287109375,16.5771484375,17.4560546875,18.2861328125,18.5302734375,18.1396484375,17.0166015625,16.7236328125,17.3583984375,16.7724609375,16.1376953125,16.1865234375,14.9658203125,14.2822265625,12.5244140625,12.2802734375,10.6689453125,10.3271484375,9.0576171875,8.6181640625,7.5927734375,7.8369140625,10.6201171875,13.4033203125,16.3330078125,17.1630859375,18.0419921875,18.7744140625,17.4072265625,17.7001953125,17.1142578125,17.1142578125,16.4794921875,15.8935546875,15.6005859375,15.2587890625,14.3798828125,13.0615234375,12.4755859375,12.3291015625,11.2548828125,10.0341796875,9.1552734375,7.6904296875,7.1044921875,8.3251953125,11.3525390625,14.0869140625,16.1865234375,17.2119140625,18.0419921875,19.2138671875,18.8720703125,18.4814453125,18.6279296875,17.1630859375,17.4560546875,16.7236328125,16.4306640625,15.9423828125,14.9169921875,14.2333984375,13.0126953125,12.2314453125,11.1083984375,10.5224609375,9.2529296875,8.5693359375,7.8857421875,8.1787109375,10.6689453125,13.5986328125,15.7958984375,17.5537109375,18.2373046875,19.7998046875,19.7021484375,18.8720703125,18.0908203125,18.5302734375,18.1884765625,18.0419921875,17.4072265625,17.3583984375,16.4794921875,15.6005859375,14.5751953125,13.5986328125,13.2080078125,12.0849609375,10.4248046875,10.2783203125,9.4482421875,9.3017578125,10.5712890625,13.2080078125,16.1865234375,18.8232421875,20.6298828125,21.1181640625,21.7041015625,21.8017578125,20.5322265625,20.1416015625,20.1416015625,20.0439453125,19.4580078125,19.2626953125,18.1396484375,17.5537109375,16.5771484375,15.6982421875,15.2099609375,13.4033203125,12.5244140625,11.8408203125,11.7919921875,11.2060546875,13.1103515625,16.0888671875,18.3349609375,19.7998046875,21.5576171875,21.9970703125,22.0947265625,20.9228515625,20.8251953125,20.2880859375,20.1416015625,19.5556640625,19.7509765625,19.0185546875,18.1396484375,17.6025390625,16.1376953125,15.3564453125,14.7216796875,14.3798828125,13.6474609375,12.9150390625,12.5244140625,14.8193359375,17.2607421875,19.7998046875,21.6064453125,22.1923828125,22.4853515625,22.0947265625,21.3623046875,21.0693359375,20.9228515625,20.8740234375,20.1904296875,20.4345703125,19.4580078125,18.5302734375,17.8955078125,17.2607421875,15.6982421875,15.1611328125,14.2822265625,13.3544921875,12.3291015625,12.8173828125,14.1845703125,16.9677734375,20.0439453125,21.2158203125,22.6806640625,23.6083984375,23.9990234375,23.4619140625,22.6806640625,21.8505859375,21.6552734375,21.9482421875,21.3134765625,20.8740234375,19.7509765625,19.0185546875,18.7255859375,17.4560546875,16.7236328125,15.6494140625,15.4052734375,14.7216796875,13.3544921875,13.7939453125,16.3330078125,19.0185546875,20.7763671875,22.8271484375,23.9990234375,25.2685546875,25.5126953125,25.2197265625,24.4384765625,24.5849609375,23.5107421875,23.7060546875,23.3154296875,22.6806640625,21.6552734375,21.0693359375,20.4833984375,19.1162109375,18.2373046875,17.4560546875,17.0166015625,15.8447265625,15.1123046875,14.6240234375,14.9658203125,18.1884765625,20.6787109375,23.5107421875,24.6826171875,26.1474609375,26.6845703125,26.3916015625,26.2451171875,25.5615234375,24.5361328125,24.3896484375,24.0966796875,23.9501953125,23.0224609375,21.6064453125,21.2646484375,19.9462890625,18.6767578125,18.1396484375,17.0166015625,16.0888671875,15.0146484375,14.2333984375,14.5751953125,16.0888671875,19.5068359375,21.9482421875,23.8525390625,24.4873046875,25.6103515625,25.8056640625,25.3662109375,24.6337890625,23.9013671875,23.8525390625,23.4130859375,23.2177734375,21.9970703125,21.6552734375,20.7275390625,19.9462890625,18.3837890625,17.7978515625,16.9677734375,15.9423828125,15.1611328125,13.6474609375,13.9404296875,15.2099609375,18.4814453125,20.8740234375,22.7783203125,23.9990234375,25.3662109375,25.7568359375,25.2197265625,24.0478515625,24.1455078125,23.9990234375,23.0712890625,23.2666015625,21.8017578125,21.4111328125,19.5556640625,19.2138671875,18.2861328125,17.2119140625,16.4794921875,15.5029296875,15.0146484375,13.7451171875,14.1845703125,13.6962890625,16.2841796875,19.9462890625,21.5576171875,22.9248046875,23.7548828125,24.9267578125,24.9267578125,23.8037109375,23.4619140625,22.9248046875,22.7783203125,22.8271484375,22.0947265625,21.1181640625,20.1904296875,19.4091796875,17.6513671875,17.1142578125,15.9912109375,14.4775390625,13.4033203125,13.3056640625,12.4267578125,11.4013671875,12.0361328125,14.0380859375,17.0654296875,20.0927734375,20.9716796875,22.2412109375,23.6572265625,23.9013671875,23.3154296875,22.7783203125,22.3876953125,22.1435546875,21.8505859375,21.2646484375,20.4345703125,19.7998046875,19.0673828125,18.0419921875,16.8701171875,15.0634765625,14.6240234375,13.5986328125,12.6220703125,11.9384765625,10.9619140625,10.3759765625,10.7666015625,13.2568359375,16.0400390625,18.2861328125,19.9951171875,21.2646484375,22.0458984375,21.8505859375,21.3623046875,20.2880859375,19.6533203125,20.0927734375,20.1904296875,19.3115234375,18.4814453125,18.6767578125,17.2607421875,15.9423828125,15.3076171875,14.5751953125,13.3056640625,12.5244140625,12.2802734375,10.9130859375,9.7412109375,10.5224609375,11.7919921875,13.9892578125,16.5771484375,19.1162109375,19.5068359375,20.3369140625,21.1669921875,20.1904296875,20.2392578125,19.9951171875,19.4580078125,20.1416015625,19.3603515625,18.7744140625,18.3349609375,17.4560546875,16.0400390625,15.6494140625,14.6240234375,13.5498046875,12.9150390625,11.5478515625,10.9130859375,9.9853515625,10.7666015625,12.9638671875,15.9912109375,18.2861328125,19.3115234375,20.8251953125,20.7275390625,20.8740234375,20.6787109375,19.7509765625,19.7509765625,19.0673828125,18.8232421875,18.3837890625,17.6025390625,17.4560546875,16.3330078125,15.3076171875,14.2333984375,13.2080078125,12.9638671875,11.7919921875,10.7666015625,9.6923828125,9.3994140625,9.7412109375,11.4990234375,14.0869140625,17.6513671875,18.3349609375,19.4580078125,21.0693359375,20.1416015625,19.9462890625,19.7509765625,18.8720703125,18.8720703125,18.4326171875,18.3837890625,18.1884765625,17.0166015625,15.7470703125,14.1357421875,14.2333984375,12.5244140625,11.7919921875,10.6689453125,10.0341796875,8.9599609375,7.7880859375,8.1787109375,10.1806640625,12.7197265625,15.6005859375,16.9677734375,18.5302734375,19.5068359375,19.7021484375,18.7255859375,17.9931640625,18.1396484375,18.0419921875,17.3583984375,18.1396484375,17.3583984375,16.3818359375,15.3564453125,14.3310546875,13.2568359375,12.5732421875,11.3037109375,10.3271484375,9.4970703125,8.5693359375,7.7880859375,7.1533203125,8.3740234375,11.4990234375,13.6962890625,16.1376953125,17.4560546875,18.4326171875,19.2138671875,19.3603515625,18.4814453125,17.7490234375,17.3095703125,17.4072265625,17.0166015625,16.8701171875,16.2841796875,15.4052734375,14.7216796875,13.7451171875,12.5732421875,11.4990234375,10.4736328125,10.6689453125,9.5458984375,8.0322265625,8.6669921875,11.4990234375,13.6474609375,15.3076171875,18.0419921875,18.2373046875,19.2626953125,19.3603515625,17.6025390625,17.7490234375,18.0908203125,18.0908203125,17.6025390625,17.8955078125,17.0654296875,16.3330078125,15.4052734375,13.9892578125,13.7451171875,13.5498046875,12.2802734375,11.1572265625,10.3271484375,10.3759765625,11.6943359375,14.4775390625,16.3818359375,18.8720703125,20.5322265625,21.3623046875,21.6064453125,21.3134765625,19.9951171875,20.1416015625,21.0693359375,20.0439453125,20.1416015625,20.1416015625,18.9208984375,18.2373046875,17.0166015625,15.8935546875,15.0146484375,15.6494140625,13.7451171875,13.3056640625,12.1826171875,13.0126953125,14.0869140625,16.7724609375,19.6044921875,21.8994140625,23.0712890625,23.8037109375,24.4384765625,23.6083984375,23.4619140625,23.0224609375,23.1201171875,22.7783203125,22.5830078125,21.9970703125,20.9716796875,20.3369140625,19.9462890625,18.8232421875,18.4814453125,17.5537109375,16.0888671875,15.2587890625,14.8193359375,15.2587890625,16.3330078125,19.2626953125,22.7294921875,24.0966796875,25.4150390625,27.1728515625,27.6611328125,27.4658203125,26.8798828125,26.6357421875,26.5869140625,25.8544921875,25.8544921875,25.2685546875,23.9013671875,23.5595703125,22.7294921875,21.7529296875,21.2646484375,19.9462890625,19.1162109375,18.4814453125,17.4560546875,16.8701171875,17.5537109375,18.5791015625,21.2646484375,23.7548828125,25.8056640625,27.1240234375,27.8076171875,28.5400390625,28.7353515625,28.2958984375,27.8564453125,27.0263671875,27.2705078125,27.6123046875,26.7333984375,25.5126953125,25.1708984375,24.1455078125,22.5830078125,21.8505859375,21.7529296875,20.9716796875,19.6044921875,19.2626953125,17.8955078125,18.7255859375,21.2646484375,24.5361328125,26.5380859375,27.6611328125,29.1748046875,29.7119140625,30.3955078125,29.5654296875,29.2236328125,29.3701171875,28.6865234375,28.5888671875,27.6611328125,27.7587890625,27.0263671875,25.9033203125,25.7080078125,24.3408203125,23.1201171875,22.2412109375,21.8994140625,20.7763671875,20.2880859375,19.9951171875,20.8251953125,23.6572265625,26.1962890625,28.4423828125,29.5166015625,30.7373046875,31.7626953125,31.0302734375,30.4443359375,29.5654296875,29.7607421875,29.0283203125,28.5888671875,28.3935546875,27.3193359375,26.6845703125,25.4638671875,24.4873046875,23.7060546875,22.5341796875,22.0458984375,21.1181640625,19.8486328125,18.9697265625,19.1650390625,19.1650390625,22.3876953125,25.0244140625,26.6357421875,28.4912109375,29.7119140625,30.6884765625,30.8349609375,30.8837890625,29.9560546875,29.0771484375,29.1259765625,28.5888671875,28.4423828125,27.5634765625,26.1962890625,25.2197265625,24.1455078125,23.0712890625,22.3876953125,20.8740234375,20.5322265625,18.9208984375,19.0185546875,17.8466796875,17.3583984375,17.2607421875,19.5068359375,22.8271484375,25.2197265625,26.9775390625,27.6123046875,29.2236328125,29.8095703125,29.8095703125,29.2236328125,28.2470703125,27.9052734375,28.0029296875,27.5634765625,26.4892578125,25.4150390625,24.1943359375,23.3642578125,22.4853515625,21.5087890625,20.4345703125,19.6044921875,18.5302734375,17.5048828125,16.4306640625,15.5029296875,15.6494140625,16.3330078125,19.2626953125,22.2412109375,24.5361328125,25.6591796875,26.6357421875,27.1240234375,26.4404296875,26.0986328125,26.1962890625,25.0244140625,25.6591796875,25.3173828125,24.3408203125,24.1455078125,23.0224609375,21.5576171875,20.4345703125,19.9462890625,18.5791015625,17.7490234375,17.4072265625,16.2353515625,15.2587890625,15.6005859375,16.7724609375,20.0439453125,22.3388671875,24.1943359375,25.4638671875,26.4892578125,26.8798828125,25.8544921875,25.4638671875,25.5615234375,24.4384765625,24.7802734375,24.4873046875,24.0478515625,22.9248046875,21.8505859375,21.1669921875,19.8486328125,19.0185546875,18.0908203125,17.7001953125,16.6259765625,15.7470703125,15.3564453125,15.4052734375,18.0419921875,20.1416015625,23.3642578125,24.9267578125,26.1962890625,26.6845703125,26.6357421875,26.0498046875,25.6103515625,25.5615234375,24.5849609375,24.7802734375,23.8525390625,23.6572265625,22.9248046875,21.6552734375,20.8251953125,18.9697265625,18.1884765625,17.6513671875,16.8701171875,15.5517578125,14.8193359375,13.8916015625,14.1357421875,15.4541015625,18.4814453125,21.2646484375,23.1201171875,24.3896484375,25.5615234375,25.8544921875,25.8056640625,24.6826171875,24.0478515625,24.2431640625,23.9013671875,23.5595703125,23.0224609375,22.6318359375,21.5087890625,20.1904296875,19.1650390625,18.2373046875,17.5537109375,16.4794921875,14.7705078125,14.1845703125,13.3056640625,12.7197265625,13.1103515625,14.5751953125,18.3349609375,20.2392578125,22.2900390625,22.7783203125,23.4130859375,24.0966796875,23.2177734375,22.8271484375,23.3154296875,21.9482421875,22.2900390625,22.4853515625,20.9716796875,20.7275390625,19.2138671875,18.0908203125,17.5048828125,16.1376953125,15.3564453125,14.3310546875,13.3056640625,12.0361328125,11.2060546875,11.2060546875,13.2568359375,17.0654296875,19.7021484375,20.7763671875,22.0947265625,23.0224609375,23.3642578125,22.3388671875,21.3134765625,21.5087890625,20.9228515625,21.2646484375,21.3623046875,20.7763671875,19.6044921875,18.5791015625,18.2373046875,17.2119140625,16.3330078125,15.4052734375,14.4775390625,12.9150390625,12.6708984375,12.6220703125,14.6728515625,17.1142578125,19.8486328125,21.6064453125,22.7783203125,24.0478515625,23.5595703125,22.7783203125,22.8271484375,22.3388671875,22.5830078125,21.5576171875,21.6552734375,20.1416015625,19.8486328125,19.1650390625,18.0419921875,17.2119140625,16.2841796875,15.5029296875,14.1357421875,13.1591796875,12.6220703125,12.7197265625,14.0869140625,16.6748046875,19.4091796875,21.6552734375,22.8271484375,23.6572265625,24.0478515625,24.1943359375,23.6572265625,22.9736328125,22.3876953125,21.8017578125,21.8994140625,22.0458984375,19.9462890625,19.3115234375,18.4814453125,18.1396484375,16.6259765625,15.9912109375,15.2099609375,14.3310546875,12.9638671875,11.8408203125,11.4990234375,13.6474609375,16.3330078125,18.9697265625,20.7763671875,21.9970703125,23.2177734375,23.9501953125,23.7060546875,22.8759765625,22.2900390625,21.7529296875,21.6552734375,21.6552734375,21.1669921875,19.7998046875,19.0185546875,17.9443359375,17.7978515625,16.0888671875,15.4541015625,14.2333984375,13.3544921875,12.0361328125,12.4267578125,12.8173828125,15.1611328125,17.9931640625,20.0927734375,21.5576171875,22.4365234375,22.4853515625,23.3154296875,21.8017578125,21.4111328125,20.4345703125,20.7275390625,20.5810546875,19.5068359375,19.2626953125,19.1162109375,18.0908203125,16.8212890625,16.2353515625,15.7470703125,14.3798828125,14.1845703125,13.5986328125,14.5263671875,16.1865234375,19.3115234375,21.3623046875,22.1435546875,23.3642578125,24.7314453125,24.0966796875,22.8759765625,22.4853515625,22.6318359375,22.0458984375,21.7529296875,20.3857421875,19.7021484375,19.7021484375,18.2861328125,17.6513671875,16.3330078125,16.5283203125,15.4541015625,15.1123046875,14.3310546875,13.6474609375,15.9912109375,18.2861328125,20.6298828125,22.1435546875,23.7548828125,24.7802734375,24.8779296875,23.9013671875,23.9013671875,23.6572265625,22.4365234375,23.0712890625,22.5830078125,21.4111328125,20.9228515625,19.5556640625,18.6279296875,17.9931640625,17.1142578125,15.9423828125,15.4052734375,14.6240234375,13.5009765625,13.7451171875,14.2822265625,17.5537109375,20.1904296875,21.8994140625,23.7548828125,24.3408203125,24.6337890625,24.3408203125,23.7548828125,23.2177734375,22.2412109375,22.4853515625,22.5830078125,21.0693359375,20.5810546875,19.3115234375,18.5791015625,17.2119140625,16.0888671875,14.6728515625,14.4775390625,13.5009765625,12.0849609375,11.2548828125,11.5966796875,13.2080078125,15.1611328125,18.1396484375,20.1416015625,21.3623046875,22.2900390625,22.7294921875,21.5576171875,21.4599609375,21.2158203125,20.1904296875,20.6787109375,20.4833984375,19.5068359375,18.8720703125,17.4072265625,16.0888671875,16.0888671875,14.5751953125,13.5986328125,12.8173828125,11.9384765625,11.4990234375,12.3779296875,14.8193359375,17.4072265625,18.6767578125,20.1904296875,21.7529296875,22.3876953125,22.4365234375,21.3134765625,20.7275390625,20.1904296875,19.2626953125,19.8486328125,19.7021484375,18.8720703125,17.4560546875,16.8212890625,16.0400390625,15.2099609375,14.1845703125,13.4033203125,11.9873046875,11.5966796875,12.2802734375,13.5986328125,16.7236328125,18.6279296875,20.4833984375,21.1669921875,22.3876953125,22.8759765625,21.6064453125,20.3369140625,20.5322265625,19.5068359375,19.6533203125,19.2138671875,18.8232421875,17.1630859375,15.9912109375,15.9912109375,14.4287109375,13.8427734375,13.0126953125,12.1826171875,10.6201171875,9.7412109375,9.4970703125,11.1083984375,13.5986328125,16.1865234375,18.0908203125,19.5068359375,20.0439453125,20.6298828125,19.9951171875,19.6044921875,19.2626953125,18.7255859375,18.2373046875,17.8466796875,17.4560546875,16.3818359375,15.1123046875,13.9404296875,13.2568359375,12.4267578125,10.9130859375,9.6435546875,8.8623046875,8.1787109375,7.0556640625,6.9580078125,8.8623046875,11.5478515625,13.7939453125,15.7470703125,15.8935546875,17.5048828125,17.4560546875,16.4306640625,15.7958984375,14.9658203125,15.2099609375,15.4541015625,14.9169921875,14.0380859375,12.7685546875,11.7431640625,10.7666015625,10.1318359375,9.0087890625,8.1787109375,7.3974609375,5.7373046875,4.5654296875,4.9560546875,7.4462890625,9.3017578125,12.4755859375,13.7939453125,14.5263671875,15.5029296875,15.6982421875,14.3798828125,14.0380859375,13.8916015625,13.1591796875,12.7197265625,12.9150390625,11.7919921875,11.1572265625,10.8154296875,9.5947265625,9.5458984375,7.3974609375,6.8115234375,5.5908203125,4.5654296875,5.3466796875,6.6650390625,8.4716796875,11.4990234375,13.2080078125,13.7451171875,14.4775390625,15.0634765625,14.1357421875,13.8427734375,12.9638671875,13.5009765625,12.4267578125,12.0361328125,11.7919921875,9.4970703125,10.3271484375,8.6181640625,8.1787109375,7.1044921875,6.0302734375,5.7861328125,4.8095703125,3.7841796875,2.9052734375,4.3701171875,6.8115234375,8.9599609375,11.6455078125,11.9873046875,13.3056640625,13.7451171875,13.5009765625,12.6220703125,12.3779296875,12.2802734375,11.7919921875,11.6943359375,11.1083984375,10.5712890625,10.0341796875,8.5693359375,8.2763671875,6.2255859375,6.1279296875,5.2490234375,4.1259765625,3.6376953125,1.9775390625,3.6865234375,3.2958984375,7.1044921875,8.8623046875,11.0107421875,12.2802734375,11.7919921875,13.4033203125,12.3779296875,12.6220703125,11.8896484375,11.8408203125,11.7919921875,11.1572265625,10.8154296875,9.9365234375,9.0087890625,8.2763671875,6.0302734375,6.4697265625,4.9560546875,4.4677734375,3.6865234375,2.6123046875,1.5869140625,1.8310546875,2.6123046875,4.3212890625,7.3974609375,9.3505859375,10.7666015625,12.3779296875,12.0849609375,12.5732421875,11.2548828125,11.2548828125,10.2783203125,10.2294921875,9.9365234375,8.8134765625,9.2041015625,7.8857421875,7.1533203125,6.0302734375,5.6396484375,4.6630859375,3.1005859375,2.6123046875,1.5869140625,1.0498046875,0.4150390625,1.9775390625,5.2490234375,7.8857421875,8.9111328125,9.4482421875,10.1806640625,10.7177734375,9.9365234375,8.9599609375,8.5693359375,9.0576171875,7.7392578125,7.9833984375,7.2998046875,5.9814453125,5.8349609375,4.7607421875,4.7119140625,2.6123046875,2.1240234375,0.8056640625,0.6103515625,-0.1220703125,-0.1708984375,1.4404296875,4.1259765625,7.1044921875,7.5439453125,9.3505859375,8.8623046875,10.0830078125,8.9599609375,7.7880859375,8.1787109375,7.7880859375,8.1298828125,7.3486328125,6.4697265625,5.7373046875,4.5654296875,3.6865234375,3.1494140625,2.4169921875,0.9521484375,0.6591796875,-0.9521484375,-1.8798828125,-1.2451171875,-1.0009765625,2.1728515625,4.1259765625,6.4697265625,7.0556640625,8.3251953125,8.9599609375,8.1298828125,8.5205078125,6.8115234375,7.7880859375,6.8603515625,6.6650390625,6.5673828125,5.2978515625,4.3701171875,3.6376953125,3.1494140625,2.0263671875,0.1220703125,-0.7080078125,-1.0498046875,-1.2451171875,-2.2216796875,-2.4169921875,-2.2705078125,1.1962890625,3.3447265625,5.5419921875,6.8115234375,7.7392578125,8.9599609375,7.9833984375,7.7392578125,7.0068359375,6.3720703125,6.9091796875,6.1279296875,5.9814453125,4.8583984375,5.0048828125,3.5400390625,1.9775390625,1.3916015625,-0.0244140625,-0.0244140625,-2.0263671875,-1.5869140625,-3.1494140625,-3.5400390625,-3.5400390625,-2.4658203125,-0.4638671875,3.1982421875,4.8095703125,6.3232421875,6.9091796875,6.9091796875,8.1787109375,6.3232421875,5.9326171875,6.2255859375,5.2490234375,5.6396484375,4.7119140625,4.9072265625,3.4423828125,2.6611328125,2.3193359375,0.8544921875,0.1708984375,-1.8798828125,-1.2939453125,-3.3447265625,-2.9052734375,-3.5888671875,-0.8544921875,1.6357421875,3.9794921875,5.6396484375,5.7861328125,7.4462890625,7.0068359375,6.6650390625,6.5185546875,5.9326171875,5.8837890625,5.4443359375,5.6884765625,4.0771484375,4.4677734375,2.7587890625,2.1728515625,1.7822265625,-0.0732421875,0.2685546875,-1.7822265625,-1.4892578125,-3.4423828125,-1.0986328125,-0.0732421875,3.5400390625,5.0537109375,7.0068359375,8.3740234375,8.1298828125,8.6181640625,7.6904296875,7.2998046875,6.7626953125,7.1044921875,7.0068359375,5.2978515625,5.7373046875,4.0771484375,3.8818359375,3.1982421875,1.6357421875,1.2451171875,-0.3173828125,-0.1708984375,-1.3427734375,-1.5869140625,-1.0986328125,1.2939453125,3.1005859375,6.2255859375,7.5927734375,8.0322265625,10.0341796875,9.5458984375,8.9111328125,8.6669921875,8.7158203125,8.3740234375,7.3974609375,8.0322265625,6.6162109375,5.3955078125,5.3466796875,3.9306640625,3.2958984375,2.0751953125,2.2705078125,0.2197265625,0.1220703125,-1.3916015625,-1.0986328125,-0.0732421875,1.9775390625,5.0048828125,6.4208984375,8.8134765625,9.7900390625,10.0830078125,10.0830078125,9.7412109375,9.4482421875,7.8857421875,8.9111328125,8.1298828125,7.7880859375,6.9091796875,5.8349609375,5.5908203125,4.7119140625,3.4423828125,2.3193359375,1.9287109375,1.1474609375,-0.1220703125,-0.6591796875,-1.3916015625,0.2197265625,2.9052734375,5.1025390625,7.7880859375,8.2763671875,8.7158203125,9.6435546875,9.7412109375,8.1298828125,8.9599609375,8.2763671875,7.4462890625,8.2275390625,6.9091796875,6.9580078125,6.2744140625,5.0048828125,3.6865234375,3.2470703125,2.8076171875,1.2451171875,1.3427734375,-1.1474609375,0.3662109375,2.1728515625,6.0791015625,7.8857421875,9.1552734375,10.6689453125,9.7412109375,11.4013671875,9.8876953125,10.1318359375,10.4248046875,9.3994140625,9.3505859375,8.6181640625,8.1298828125,7.3486328125,5.2490234375,5.8837890625,3.6865234375,4.3212890625,2.9052734375,2.2705078125,1.3427734375,1.1474609375,2.6123046875,4.4677734375,8.1298828125,8.9111328125,11.2548828125,12.1337890625,12.4267578125,13.2568359375,11.1572265625,11.5478515625,11.2548828125,10.5712890625,10.0341796875,9.1552734375,8.8134765625,7.2998046875,6.8115234375,4.5654296875,5.3955078125,4.0771484375,3.3447265625,2.8564453125,0.3662109375,1.1474609375,1.2451171875,3.7841796875,5.8349609375,8.5205078125,10.3271484375,11.4013671875,12.7685546875,12.4267578125,12.6220703125,10.8154296875,11.4501953125,10.6201171875,9.2529296875,10.4248046875,8.2275390625,9.0087890625,7.5439453125,6.7626953125,6.5673828125,4.6630859375,4.3212890625,3.0517578125,2.9052734375,0.6103515625,0.9033203125,0.4638671875,1.8798828125,5.1025390625,7.0068359375,9.8388671875,10.5712890625,11.5478515625,11.8896484375,11.0107421875,10.7666015625,8.9599609375,10.0341796875,9.4970703125,8.5205078125,8.6669921875,7.1533203125,6.8115234375,5.7373046875,4.9560546875,3.7841796875,2.6611328125,2.4658203125,0.4638671875,0.7568359375,0.0244140625,1.4404296875,3.2470703125,6.7138671875,8.6669921875,10.0830078125,11.0107421875,10.7666015625,10.9130859375,8.9599609375,10.1806640625,9.3017578125,8.8134765625,8.7646484375,8.0322265625,7.4462890625,6.5185546875,5.7373046875,4.7607421875,3.6376953125,3.2470703125,1.7333984375,2.0263671875,-0.0732421875,1.6357421875,3.4423828125,6.8603515625,8.8623046875,10.4736328125,11.6455078125,11.8408203125,11.9873046875,11.2548828125,10.6201171875,10.1318359375,9.8388671875,10.1318359375,7.2021484375,8.5693359375,6.2744140625,5.7373046875,4.8583984375,3.7841796875,3.8330078125,2.6123046875,1.8798828125,0.0244140625,1.1474609375,0.3173828125,2.7099609375,5.0048828125,7.8857421875,10.0341796875,10.0830078125,11.8896484375,12.2314453125,11.5966796875,9.9365234375,10.6201171875,10.3759765625,9.4970703125,9.2041015625,7.3486328125,7.3486328125,7.2021484375,4.0771484375,5.2978515625,3.1982421875,2.7099609375,1.7822265625,1.7333984375,-0.4638671875,-0.4150390625,0.5615234375,2.4658203125,5.8837890625,6.8115234375,9.3994140625,9.9853515625,11.0595703125,10.7666015625,9.8388671875,9.7900390625,7.8857421875,9.0087890625,8.0810546875,8.2763671875,7.2998046875,5.2978515625,5.2001953125,3.1005859375,3.3935546875,1.8798828125,1.9775390625,0.3662109375,-0.5126953125,-1.1474609375,-1.6357421875,-0.0244140625,2.6611328125,6.0302734375,7.0556640625,8.8623046875,8.9599609375,9.5458984375,8.7646484375,7.9345703125,8.0810546875,7.3974609375,7.2998046875,7.3486328125,6.5673828125,6.3232421875,5.0048828125,4.0283203125,3.1982421875,2.4169921875,1.3427734375,1.1962890625,0.0732421875,-1.5380859375,-0.0732421875,1.5380859375,4.7607421875,6.8603515625,8.5205078125,9.4970703125,9.7412109375,10.1318359375,8.6181640625,8.3740234375,7.4951171875,7.7392578125,7.2021484375,5.7861328125,5.6884765625,4.6142578125,4.8095703125,2.6611328125,3.1494140625,2.6123046875,1.2939453125,0.6103515625,-1.2939453125,-1.0009765625,-0.6591796875,2.5146484375,5.2978515625,7.5927734375,8.1298828125,8.8623046875,9.7900390625,8.8134765625,9.4970703125,8.3251953125,7.9345703125,8.4716796875,6.7138671875,7.2998046875,6.6162109375,5.8349609375,4.6142578125,3.1494140625,2.9541015625,2.4169921875,1.4892578125,0.0244140625,-0.4638671875,-1.7822265625,-0.9521484375,0.0244140625,3.8330078125,5.7861328125,7.4462890625,8.3740234375,9.4970703125,9.5947265625,9.1064453125,9.1552734375,8.2275390625,7.7392578125,6.8115234375,7.5927734375,6.7138671875,5.7861328125,4.2236328125,3.2470703125,2.5146484375,1.5380859375,0.6591796875,-0.2685546875,-1.3427734375,-2.1728515625,-2.5634765625,-2.7587890625,-1.9775390625,1.0986328125,4.0771484375,5.4443359375,6.7626953125,7.2998046875,7.7392578125,7.1533203125,6.2255859375,5.5908203125,5.8837890625,5.1513671875,5.2001953125,4.3701171875,2.4658203125,2.3681640625,1.3916015625,0.5615234375,-0.1220703125,-0.6103515625,-1.8798828125,-2.5634765625,-3.2958984375,-3.5400390625,-2.1728515625,1.5869140625,3.6376953125,4.8095703125,6.1279296875,7.1044921875,7.1044921875,5.9326171875,5.4931640625,5.2490234375,5.5419921875,4.6630859375,4.6630859375,3.5888671875,3.3935546875,1.6357421875,1.0009765625,0.7080078125,-0.1708984375,-1.1962890625,-2.0751953125,-2.6123046875,-2.9052734375,-1.7333984375,1.0986328125,3.5400390625,4.9560546875,6.5673828125,7.2021484375,7.7392578125,7.5439453125,6.8603515625,6.7626953125,6.4697265625,6.5673828125,5.6396484375,5.2490234375,4.0771484375,3.5400390625,2.1728515625,1.7822265625,0.4150390625,0.4638671875,-1.1962890625,-1.5869140625,-3.0517578125,-4.0771484375,-3.7841796875,-2.2216796875,1.0498046875,3.5888671875,5.1513671875,6.1279296875,7.2021484375,7.7880859375,7.4462890625,6.8115234375,6.1767578125,6.0791015625,5.8349609375,5.4443359375,4.4189453125,3.7353515625,2.4658203125,1.5869140625,0.7080078125,-0.8056640625,-1.0498046875,-2.1240234375,-2.8076171875,-3.3447265625,-4.6142578125,-4.8583984375,-4.5166015625,-1.7333984375,0.7568359375,3.1494140625,5.2001953125,5.6884765625,6.4208984375,6.5673828125,6.1279296875,5.7373046875,5.3466796875,4.8095703125,4.1748046875,3.8330078125,3.6865234375,2.2705078125,1.6357421875,0.2685546875,-1.1474609375,-1.8310546875,-3.1005859375,-3.5888671875,-3.8818359375,-5.3466796875,-5.8837890625,-6.5673828125,-6.2255859375,-3.4912109375,-0.2685546875,1.3916015625,2.7099609375,4.2236328125,4.6630859375,4.4677734375,3.3935546875,3.4423828125,3.0517578125,2.6123046875,2.7099609375,2.2705078125,1.1962890625,0.7080078125,-0.6103515625,-1.0986328125,-2.8564453125,-3.8330078125,-4.8583984375,-5.8837890625,-6.8603515625,-6.8603515625,-8.1298828125,-7.8857421875,-6.5673828125,-3.0029296875,-0.4150390625,1.4404296875,1.8798828125,2.3681640625,2.6611328125,2.0263671875,1.4404296875,0.9521484375,0.6591796875,0.3662109375,-0.0244140625,-1.0498046875,-1.7822265625,-2.3681640625,-2.6123046875,-3.7841796875,-4.5166015625,-5.6884765625,-6.6650390625,-7.0556640625,-7.7880859375,-7.2998046875,-5.2001953125,-2.6123046875,-0.0732421875,1.4404296875,2.4169921875,2.7099609375,3.0517578125,2.0751953125,1.0498046875,1.1962890625,0.6591796875,0.6591796875,-0.0244140625,-0.3662109375,-1.1474609375,-2.0263671875,-2.8564453125,-3.5400390625,-4.7119140625,-5.1025390625,-6.3232421875,-7.4462890625,-7.6904296875,-6.9580078125,-5.2490234375,-2.0263671875,0.2197265625,1.4404296875,3.1494140625,3.7841796875,4.4189453125,3.2958984375,3.2958984375,2.6611328125,2.2705078125,2.4658203125,1.9775390625,1.7822265625,0.7568359375,-0.3662109375,-0.8056640625,-1.3916015625,-2.5634765625,-3.2958984375,-4.3212890625,-5.4443359375,-5.6396484375,-5.8837890625,-5.1025390625,-2.2216796875,0.4638671875,2.7099609375,4.3701171875,5.5908203125,6.2744140625,5.8349609375,5.8349609375,5.6884765625,5.3466796875,5.1025390625,5.0537109375,4.3701171875,3.5400390625,2.8564453125,1.0986328125,1.2939453125,0.3662109375,-0.6103515625,-1.8310546875,-2.0263671875,-3.7841796875,-4.0283203125,-4.1259765625,-3.1982421875,-1.0009765625,2.1240234375,4.3701171875,6.0791015625,6.5673828125,7.8857421875,8.5693359375,7.7880859375,7.3486328125,6.5673828125,6.9091796875,6.3720703125,5.9326171875,5.4931640625,4.3701171875,3.1005859375,1.8798828125,1.5869140625,0.9033203125,-0.3173828125,-0.9521484375,-1.5380859375,-2.4658203125,-3.4423828125,-2.7099609375,-0.5615234375,2.9052734375,5.5419921875,6.3232421875,7.8857421875,7.9833984375,8.2275390625,7.6904296875,7.2021484375,6.3720703125,6.3720703125,6.4208984375,6.2744140625,5.4443359375,5.1025390625,3.8818359375,2.4658203125,1.7333984375,1.5380859375,-0.0732421875,-0.3662109375,-0.7568359375,-1.8310546875,-1.8310546875,0.2685546875,3.1494140625,5.9814453125,7.2021484375,8.2763671875,8.2763671875,9.7412109375,8.5205078125,7.6904296875,7.8369140625,7.7880859375,7.6416015625,6.7626953125,5.8349609375,5.2978515625,4.4189453125,2.8564453125,1.7333984375,1.1474609375,-0.6103515625,-1.0986328125,-1.9287109375,-2.0263671875,-3.0029296875,-2.2216796875,0.8544921875,3.3447265625,5.7861328125,6.6650390625,8.1298828125,9.2041015625,9.5458984375,8.9599609375,7.9345703125,7.5439453125,7.2998046875,6.8115234375,6.3720703125,5.9326171875,4.8095703125,3.4423828125,2.3193359375,1.9775390625,0.7080078125,0.0732421875,-1.0986328125,-1.3427734375,-2.9541015625,-3.6376953125,-3.5400390625,-1.4892578125,1.8310546875,3.8330078125,5.9814453125,7.1044921875,8.1298828125,7.8369140625,7.5927734375,7.1533203125,7.0556640625,6.2255859375,5.9326171875,6.0791015625,5.2001953125,4.2236328125,3.1005859375,1.7822265625,0.5615234375,-0.3173828125,-0.9521484375,-2.1728515625,-1.8798828125,-3.5400390625,-4.1259765625,-4.2236328125,-3.0029296875,0.4150390625,2.9541015625,4.2236328125,5.4931640625,5.9814453125,6.6162109375,5.9814453125,4.5166015625,4.9560546875,5.0537109375,4.7119140625,4.7119140625,4.1259765625,2.9541015625,2.1240234375,0.4638671875,0.5126953125,-0.6591796875,-1.6845703125,-2.7099609375,-2.9052734375,-3.3935546875,-3.1494140625,-0.4150390625,2.4169921875,4.6142578125,6.3232421875,7.2509765625,8.0322265625,8.1787109375,7.0556640625,6.7626953125,6.8603515625,6.6650390625,6.3720703125,5.9814453125,4.9560546875,4.0771484375,3.0517578125,2.3193359375,0.8056640625,0.7568359375,-0.5126953125,-1.0986328125,-1.9775390625,-3.1005859375,-2.2216796875,-1.0009765625,2.6123046875,5.1513671875,7.0068359375,7.9833984375,9.1064453125,9.3017578125,8.9599609375,8.1298828125,7.8857421875,7.2998046875,7.2509765625,6.5185546875,5.1025390625,4.8095703125,3.4912109375,2.3193359375,1.5869140625,0.3173828125,-0.1708984375,-1.1962890625,-2.0263671875,-2.7099609375,-3.2470703125,-2.5634765625,-0.3662109375,2.7587890625,4.8095703125,6.2744140625,7.4462890625,8.1298828125,8.2763671875,8.1787109375,7.0068359375,6.9580078125,6.5673828125,5.8349609375,5.8349609375,4.6142578125,3.5400390625,3.1494140625,1.8310546875,1.0498046875,-0.6103515625,-1.6845703125,-2.4169921875,-3.1494140625,-4.4189453125,-4.5166015625,-3.9306640625,-1.5380859375,1.4404296875,4.5166015625,5.3466796875,6.7626953125,7.2021484375,6.9091796875,6.0791015625,5.7373046875,4.8583984375,4.9560546875,5.0048828125,4.4677734375,3.6376953125,3.1982421875,1.7822265625,0.6591796875,0.7568359375,-0.7568359375,-2.1240234375,-2.5146484375,-3.1982421875,-3.8330078125,-3.0517578125,-0.6103515625,2.1728515625,4.4189453125,5.4931640625,6.8603515625,7.4951171875,6.6650390625,5.5419921875,5.3466796875,4.7607421875,5.1025390625,4.7119140625,4.3701171875,4.0283203125,2.6123046875,2.2705078125,0.9033203125,0.7080078125,0.3662109375,-0.4638671875,-2.2705078125,-1.9287109375,-1.1474609375,1.9287109375,4.6142578125,6.3720703125,7.8369140625,8.6669921875,8.9111328125,8.7158203125,7.6416015625,6.7626953125,6.9091796875,6.2255859375,6.0791015625,5.3466796875,4.0283203125,3.1494140625,2.5146484375,1.4404296875,0.6591796875,0.2197265625,-0.7568359375,-2.3193359375,-2.8564453125,-2.8076171875,-0.6103515625,2.4658203125,3.9794921875,5.9326171875,7.0068359375,7.9833984375,8.1298828125,7.6904296875,6.9580078125,7.6416015625,6.5673828125,6.1767578125,5.4443359375,4.6630859375,3.9794921875,2.2216796875,1.6357421875,0.4150390625,-0.3173828125,-1.3427734375,-1.9287109375,-3.1982421875,-4.9072265625,-3.8330078125,-2.4169921875,0.9033203125,3.5400390625,5.6396484375,6.3720703125,7.2509765625,7.6904296875,6.8115234375,5.8837890625,5.7861328125,4.9560546875,5.2490234375,4.5654296875,4.2724609375,3.1005859375,2.0751953125,1.2939453125,0.4638671875,-0.3662109375,-1.2451171875,-2.5634765625,-2.9052734375,-4.3701171875,-3.8818359375,-2.8076171875,-0.0244140625,2.1728515625,4.4189453125,5.2978515625,5.9814453125,5.8837890625,5.2978515625,4.8095703125,4.7119140625,3.6865234375,3.6865234375,3.3447265625,3.1005859375,1.1474609375,0.3662109375,-0.4638671875,-1.1962890625,-2.3681640625,-3.4423828125,-3.7353515625,-4.5654296875,-4.6142578125,-2.9052734375,0.9033203125,2.8076171875,4.4189453125,4.5166015625,6.1279296875,5.9814453125,5.1025390625,4.2236328125,4.0283203125,3.5888671875,3.4423828125,3.1982421875,2.8564453125,1.0498046875,0.6103515625,-0.4638671875,-0.6591796875,-1.7822265625,-3.2470703125,-3.9306640625,-5.0537109375,-4.1748046875,-2.7587890625,0.5126953125,2.9541015625,5.1513671875,5.7861328125,6.6650390625,7.0068359375,6.3232421875,5.7861328125,5.5908203125,5.4931640625,5.2978515625,4.6142578125,3.2470703125,2.8564453125,1.6357421875,0.4638671875,-0.3173828125,-0.9033203125,-1.7822265625,-2.4658203125,-3.4423828125,-4.8583984375,-3.8330078125,-2.9541015625,-0.1220703125,2.9541015625,4.4189453125,6.7138671875,7.5439453125,7.6416015625,7.8857421875,7.0068359375,6.8603515625,6.4208984375,5.5419921875,5.4443359375,4.9072265625,3.4912109375,2.9541015625,2.0263671875,1.1474609375,0.0732421875,-0.8544921875,-1.8310546875,-2.7587890625,-3.9306640625,-4.6630859375,-4.3212890625,-2.0751953125,1.0986328125,3.6376953125,5.2001953125,6.9580078125,6.6650390625,7.6904296875,6.9580078125,6.4697265625,5.9326171875,4.8095703125,5.2978515625,4.4189453125,3.6865234375,2.4658203125,1.5380859375,0.9521484375,-0.3173828125,-1.1474609375,-2.0751953125,-2.6611328125,-3.8330078125,-4.7119140625,-5.0537109375,-4.0771484375,-1.0009765625,1.5869140625,3.8330078125,5.3955078125,5.5419921875,6.1279296875,5.2978515625,4.5166015625,4.6630859375,3.8330078125,2.8564453125,2.5634765625,2.2705078125,1.6357421875,0.9033203125,-0.6103515625,-0.9033203125,-2.5634765625,-3.5888671875,-3.6865234375,-5.5908203125,-6.3720703125,-6.4208984375,-5.0048828125,-0.9521484375,1.3427734375,3.1005859375,3.1982421875,4.8095703125,5.0048828125,4.8095703125,2.9541015625,3.2958984375,3.3447265625,2.7099609375,1.8310546875,0.6103515625,0.8056640625,-0.5615234375,-1.8798828125,-2.2216796875,-3.6376953125,-3.5888671875,-4.9072265625,-6.2255859375,-7.2509765625,-7.4951171875,-6.2744140625,-2.3193359375,0.0732421875,2.3193359375,3.5400390625,4.0283203125,4.1259765625,4.0283203125,3.6865234375,3.0029296875,2.7099609375,2.2216796875,1.6845703125,1.0009765625,0.4638671875,-0.6591796875,-1.5869140625,-2.6123046875,-2.8564453125,-4.6142578125,-5.8349609375,-6.7138671875,-7.8857421875,-8.0810546875,-8.8623046875,-8.5693359375,-5.8837890625,-2.5146484375,-0.6103515625,1.4892578125,2.7587890625,3.0029296875,4.0771484375,2.7099609375,2.1728515625,1.8310546875,2.0263671875,1.6845703125,0.8544921875,-0.0244140625,-0.9033203125,-1.7333984375,-2.6611328125,-3.6376953125,-5.1513671875,-6.0302734375,-6.5673828125,-7.4951171875,-8.9111328125,-9.5458984375,-10.1806640625,-9.4970703125,-7.6416015625,-4.9072265625,-2.1240234375,-0.1220703125,0.2685546875,1.5869140625,1.9287109375,0.9033203125,1.0498046875,0.6103515625,0.3173828125,-0.4150390625,-0.6103515625,-1.3427734375,-1.9287109375,-3.7841796875,-4.5166015625,-6.0791015625,-6.3720703125,-7.7880859375,-8.6181640625,-9.4970703125,-10.5224609375,-10.2783203125,-9.9853515625,-7.0556640625,-3.6865234375,-1.8310546875,-0.3173828125,-0.0732421875,1.2939453125,0.9033203125,-0.2685546875,0.0244140625,-0.5126953125,-0.9033203125,-0.9033203125,-1.0498046875,-1.7822265625,-2.3193359375,-3.6376953125,-4.7607421875,-6.2255859375,-6.7626953125,-7.5927734375,-8.6181640625,-8.9599609375,-9.7900390625,-9.5947265625,-8.3740234375,-4.9560546875,-2.7587890625,-0.2685546875,0.6103515625,1.0498046875,1.4892578125,1.3916015625,0.3662109375,-0.0732421875,-0.2197265625,-0.7568359375,-0.8544921875,-1.3916015625,-2.7099609375,-3.3935546875,-4.2236328125,-5.6396484375,-6.7626953125,-7.5439453125,-8.3251953125,-9.7412109375,-10.0830078125,-10.9619140625,-11.8896484375,-10.7177734375,-8.0810546875,-4.9072265625,-3.0029296875,-1.5380859375,0.0244140625,0.7568359375,0.4150390625,-0.3662109375,-1.0498046875,-1.6357421875,-2.5146484375,-1.9287109375,-2.3681640625,-3.2470703125,-4.5654296875,-5.7373046875,-6.4697265625,-7.2021484375,-8.5205078125,-9.2041015625,-10.1318359375,-11.3037109375,-11.8408203125,-12.5244140625,-12.4755859375,-11.5966796875,-8.3251953125,-5.5419921875,-3.1982421875,-3.3447265625,-2.6123046875,-2.3681640625,-3.7353515625,-3.2470703125,-3.4912109375,-3.9306640625,-4.0283203125,-4.8583984375,-5.1025390625,-6.2744140625,-7.9833984375,-7.7880859375,-8.8134765625,-10.1806640625,-11.0595703125,-11.3037109375,-11.9873046875,-14.0869140625,-14.3798828125,-13.7451171875,-10.5224609375,-6.7626953125,-4.5654296875,-4.0283203125,-3.1982421875,-2.6611328125,-3.2470703125,-3.5888671875,-3.2470703125,-4.1259765625,-3.4912109375,-3.9306640625,-5.1513671875,-4.5654296875,-5.8837890625,-6.9580078125,-8.0810546875,-8.6181640625,-9.4482421875,-9.8876953125,-11.3525390625,-11.4990234375,-12.1826171875,-11.4990234375,-8.7646484375,-5.8837890625,-3.5888671875,-2.3681640625,-1.6357421875,-1.2939453125,-0.5126953125,-1.8798828125,-1.4404296875,-1.9775390625,-2.2216796875,-2.3681640625,-3.0517578125,-4.0283203125,-4.5654296875,-5.3955078125,-6.9580078125,-7.2021484375,-7.9833984375,-9.3017578125,-9.6435546875,-10.6689453125,-11.5966796875,-11.4013671875,-9.4970703125,-6.5673828125,-3.7353515625,-2.0263671875,-0.5615234375,0.1708984375,0.5615234375,-0.0244140625,-1.0009765625,-0.8544921875,-1.5869140625,-1.5869140625,-1.3916015625,-2.5146484375,-2.9541015625,-4.7607421875,-5.2978515625,-6.7626953125,-7.2509765625,-8.4228515625,-9.2041015625,-10.6201171875,-10.9130859375,-12.1337890625,-11.7919921875,-10.5224609375,-7.4462890625,-4.7607421875,-2.6123046875,-1.4404296875,-1.4404296875,0.0244140625,-0.3662109375,-0.7568359375,-1.6357421875,-2.4169921875,-2.3681640625,-2.7587890625,-3.1494140625,-4.2236328125,-5.5419921875,-6.0302734375,-7.2509765625,-8.2763671875,-9.3505859375,-9.4970703125,-10.7177734375,-11.5966796875,-12.1337890625,-12.4755859375,-10.7666015625,-7.6904296875,-4.6142578125,-2.8564453125,-2.4169921875,-1.5380859375,-1.2451171875,-2.5634765625,-3.0517578125,-2.9541015625,-3.0029296875,-4.0283203125,-3.4423828125,-4.7119140625,-5.4931640625,-6.0302734375,-6.3232421875,-7.5927734375,-7.9345703125,-9.0087890625,-10.2294921875,-11.4013671875,-11.6455078125,-11.1083984375,-8.4716796875,-5.6884765625,-2.9541015625,-2.1240234375,-1.1474609375,-0.5126953125,-0.6103515625,-1.7333984375,-1.7333984375,-1.5380859375,-2.0751953125,-2.5146484375,-3.4423828125,-3.4423828125,-4.4677734375,-5.7861328125,-6.6650390625,-7.7880859375,-8.4716796875,-9.1064453125,-9.9853515625,-11.1572265625,-11.8896484375,-11.4990234375,-10.3759765625,-6.8603515625,-4.8583984375,-2.3193359375,-1.0498046875,0.1220703125,0.2685546875,-0.1708984375,-0.5126953125,-0.7568359375,-0.7568359375,-0.9033203125,-1.7333984375
PPG_subj_02,33,F,Y,Non-diabetic,99,34.3635,Earlobe,0.185546875,0.185546875,0.185546875,0.185546875,0.185546875,0.185546875,86.5576171875,-30.9912109375,-30.8935546875,-32.2607421875,-32.6513671875,-32.7490234375,-33.3837890625,-33.3837890625,-34.8486328125,-36.3623046875,-33.9697265625,-27.2314453125,-22.1533203125,-20.6396484375,-20.7861328125,-20.1513671875,-18.7353515625,-18.0029296875,-18.4912109375,-18.3447265625,-18.3935546875,-18.8818359375,-19.6630859375,-20.0537109375,-20.4931640625,-21.2744140625,-22.6416015625,-24.3994140625,-24.6923828125,-25.5224609375,-26.0107421875,-26.7919921875,-27.7685546875,-25.3759765625,-18.8818359375,-14.5361328125,-12.6806640625,-13.3154296875,-12.0458984375,-11.4599609375,-12.0458984375,-12.5341796875,-13.5595703125,-14.7802734375,-15.1708984375,-16.3916015625,-18.7353515625,-19.6630859375,-20.5419921875,-22.1044921875,-23.9111328125,-25.6201171875,-27.1337890625,-28.3544921875,-31.0400390625,-32.7490234375,-30.1611328125,-25.2294921875,-21.9580078125,-22.2509765625,-22.3486328125,-21.7138671875,-22.2021484375,-22.5927734375,-24.4970703125,-25.4248046875,-25.5712890625,-26.8408203125,-28.7451171875,-30.1611328125,-31.8701171875,-33.1884765625,-34.9462890625,-36.8505859375,-38.9501953125,-40.2197265625,-42.4658203125,-44.1748046875,-40.9033203125,-34.3115234375,-31.8701171875,-33.9208984375,-33.4814453125,-32.0166015625,-32.6513671875,-33.7744140625,-34.7021484375,-35.2392578125,-35.2880859375,-35.7763671875,-36.1669921875,-36.8505859375,-36.6552734375,-36.5087890625,-36.3623046875,-37.3876953125,-37.8759765625,-38.5595703125,-39.2431640625,-38.3642578125,-32.4560546875,-25.6201171875,-24.3017578125,-24.1552734375,-22.7392578125,-20.6884765625,-20.6396484375,-22.0556640625,-22.5439453125,-22.9345703125,-22.2021484375,-22.8369140625,-23.6669921875,-23.7646484375,-24.6923828125,-24.6923828125,-25.0341796875,-26.2060546875,-26.4013671875,-27.4755859375,-29.2822265625,-28.5498046875,-22.7392578125,-17.7099609375,-14.4384765625,-13.6083984375,-11.9970703125,-10.5322265625,-9.6533203125,-9.8974609375,-10.6787109375,-11.7041015625,-11.3134765625,-11.4111328125,-12.8759765625,-13.9501953125,-14.6826171875,-15.1220703125,-16.8798828125,-18.0517578125,-18.1494140625,-19.1748046875,-20.4443359375,-20.9326171875,-18.9306640625,-12.6806640625,-8.4814453125,-7.2119140625,-6.9677734375,-5.5029296875,-5.8935546875,-5.1611328125,-7.1630859375,-8.6767578125,-9.6533203125,-10.9228515625,-12.6318359375,-14.4384765625,-17.2705078125,-18.1494140625,-20.4931640625,-22.5439453125,-24.9365234375,-26.3525390625,-27.8662109375,-29.9658203125,-32.2607421875,-30.6494140625,-25.4248046875,-22.1533203125,-20.3955078125,-19.7119140625,-19.5654296875,-19.5654296875,-19.7607421875,-21.2255859375,-22.9345703125,-24.5947265625,-25.3271484375,-27.8662109375,-28.9892578125,-30.1611328125,-32.5537109375,-33.7255859375,-34.9951171875,-36.0205078125,-37.3876953125,-38.9990234375,-40.8056640625,-42.0751953125,-36.6064453125,-30.9423828125,-29.5751953125,-29.9658203125,-28.5009765625,-26.4013671875,-26.2548828125,-27.4755859375,-28.7939453125,-28.5009765625,-28.7939453125,-29.2822265625,-29.3798828125,-30.3564453125,-30.8447265625,-31.5771484375,-32.0166015625,-31.9189453125,-32.5537109375,-33.4814453125,-34.1162109375,-34.9462890625,-35.7275390625,-29.6728515625,-23.3251953125,-21.0302734375,-21.4697265625,-20.7373046875,-18.5888671875,-17.1240234375,-17.1728515625,-17.9052734375,-19.0771484375,-19.4677734375,-19.5654296875,-20.0048828125,-20.6884765625,-21.9091796875,-22.2509765625,-22.9833984375,-23.1298828125,-23.9599609375,-24.8876953125,-25.7177734375,-27.0849609375,-27.0849609375,-26.4990234375,-20.0048828125,-15.4638671875,-12.1435546875,-11.7041015625,-9.9462890625,-8.6279296875,-7.2119140625,-7.3095703125,-8.0908203125,-7.8955078125,-8.1396484375,-9.0185546875,-9.6044921875,-11.0205078125,-11.8017578125,-12.5341796875,-13.6572265625,-15.5615234375,-16.5869140625,-18.2470703125,-20.9814453125,-22.7392578125,-23.7158203125,-24.7900390625,-20.2978515625,-15.7568359375,-13.6083984375,-13.7060546875,-12.4853515625,-12.8271484375,-12.4853515625,-13.6083984375,-15.8544921875,-18.2470703125,-19.4677734375,-20.7861328125,-22.0068359375,-23.7646484375,-24.8388671875,-27.2314453125,-29.2822265625,-31.2841796875,-32.3583984375,-34.7509765625,-36.3134765625,-37.4853515625,-39.9267578125,-40.2685546875,-33.8720703125,-29.5263671875,-29.6728515625,-29.6728515625,-29.2333984375,-28.5009765625,-28.5986328125,-30.7958984375,-32.8955078125,-33.6767578125,-34.0185546875,-35.1416015625,-35.6298828125,-35.8740234375,-36.8017578125,-37.4853515625,-38.4619140625,-39.4873046875,-39.8779296875,-41.2939453125,-42.7587890625,-43.6376953125,-42.4169921875,-35.1416015625,-30.2099609375,-28.7451171875,-28.4521484375,-26.7431640625,-24.4482421875,-24.1064453125,-24.4970703125,-25.5712890625,-25.3271484375,-25.6201171875,-26.3037109375,-26.2060546875,-25.6689453125,-27.0361328125,-27.5732421875,-28.3056640625,-29.1357421875,-29.2822265625,-29.7705078125,-30.8935546875,-32.3095703125,-31.7724609375,-26.1083984375,-20.0048828125,-16.9287109375,-16.7822265625,-14.9267578125,-13.7548828125,-12.5341796875,-12.5830078125,-13.3642578125,-13.6083984375,-13.3642578125,-13.5107421875,-14.7314453125,-15.2685546875,-16.5380859375,-17.9052734375,-18.4912109375,-19.1748046875,-20.6396484375,-20.5908203125,-21.8603515625,-22.7880859375,-22.9345703125,-18.2470703125,-12.2900390625,-9.4580078125,-7.6513671875,-7.5537109375,-6.4794921875,-6.2841796875,-6.8212890625,-7.9443359375,-9.4091796875,-10.8740234375,-11.7529296875,-13.8525390625,-16.2939453125,-16.8310546875,-18.4423828125,-20.6884765625,-23.4716796875,-25.1318359375,-26.3525390625,-28.2080078125,-30.8935546875,-32.2607421875,-30.3564453125,-24.0576171875,-21.0302734375,-20.7373046875,-21.7138671875,-20.5908203125,-20.2490234375,-21.6162109375,-23.5693359375,-25.0830078125,-26.7919921875,-27.6220703125,-29.3310546875,-30.0634765625,-31.5771484375,-33.7744140625,-35.4345703125,-37.9736328125,-39.2431640625,-41.5869140625,-43.0517578125,-45.1513671875,-45.4443359375,-37.9736328125,-33.1884765625,-32.8466796875,-32.7490234375,-27.5732421875,-13.6083984375,-19.5166015625,-19.3701171875,-17.4169921875,-18.2958984375,-17.7099609375,-19.3701171875,-19.2724609375,-19.0771484375,-20.9814453125,-21.6650390625,-22.3974609375,-21.7626953125,-22.4462890625,-23.9111328125,-24.6435546875,-21.9580078125,-13.6572265625,-8.2373046875,-6.8212890625,-6.5283203125,-5.0146484375,-2.7685546875,-1.7919921875,-2.4755859375,-3.6962890625,-2.8662109375,-3.2080078125,-3.9404296875,-5.2099609375,-5.2099609375,-6.3330078125,-5.8935546875,-6.9189453125,-6.6259765625,-7.4560546875,-8.4326171875,-8.3349609375,-9.2138671875,-8.0908203125,-0.5224609375,5.7763671875,7.1923828125,7.4365234375,9.8291015625,10.7568359375,12.7099609375,12.2216796875,11.7822265625,11.7333984375,11.3427734375,11.1962890625,10.2685546875,9.9267578125,8.7548828125,7.4365234375,6.8505859375,5.4345703125,4.6533203125,3.8232421875,2.1142578125,1.5283203125,-0.0341796875,4.9462890625,12.2705078125,17.1533203125,17.7392578125,18.6669921875,20.3271484375,20.5712890625,22.1826171875,21.6455078125,19.4970703125,18.2763671875,17.2509765625,15.7373046875,13.4423828125,11.8310546875,10.1708984375,8.9990234375,7.1923828125,5.9716796875,3.8720703125,2.4560546875,1.1376953125,-2.0361328125,-2.5244140625,1.8701171875,8.2177734375,11.0498046875,9.8291015625,9.7802734375,9.5361328125,9.6337890625,8.4619140625,6.1181640625,4.1650390625,2.3583984375,1.1865234375,-0.7177734375,-1.5966796875,-4.5751953125,-5.7470703125,-7.1142578125,-9.0673828125,-10.9228515625,-12.7783203125,-14.8291015625,-16.4404296875,-18.0517578125,-13.5595703125,-6.2353515625,-4.8193359375,-5.2587890625,-4.4775390625,-2.4267578125,-1.9873046875,-2.7197265625,-4.0380859375,-5.2587890625,-4.6728515625,-5.3076171875,-5.6982421875,-6.1376953125,-7.0654296875,-8.4326171875,-8.8720703125,-9.3115234375,-10.0927734375,-11.5087890625,-12.5341796875,-14.3896484375,-13.6572265625,-6.9189453125,0.1123046875,2.6513671875,2.6513671875,3.5791015625,5.6298828125,6.0205078125,5.9716796875,6.0205078125,5.1416015625,4.7998046875,3.7255859375,3.2861328125,2.7001953125,1.8212890625,1.3818359375,0.2099609375,-0.7177734375,-1.4013671875,-2.2802734375,-2.6220703125,-3.7451171875,-4.7216796875,-0.6689453125,6.7041015625,12.2705078125,13.8818359375,14.8583984375,14.7607421875,15.9814453125,17.4462890625,16.6162109375,16.0791015625,15.7373046875,16.2744140625,15.2978515625,14.5166015625,14.0283203125,12.7099609375,12.5146484375,11.4892578125,10.9033203125,9.3408203125,8.2177734375,7.7294921875,6.8505859375,6.8505859375,12.2216796875,18.2275390625,22.3779296875,23.7451171875,23.5986328125,24.0380859375,23.3056640625,23.4033203125,22.2314453125,20.5712890625,19.4482421875,18.0322265625,15.5908203125,14.2724609375,12.0751953125,10.8056640625,9.1455078125,6.7041015625,5.4345703125,3.8232421875,1.4306640625,-0.5712890625,-2.8662109375,-1.8896484375,4.9462890625,10.0244140625,10.1220703125,9.2919921875,9.8779296875,10.7568359375,10.1220703125,9.5361328125,7.7783203125,6.8017578125,6.6552734375,5.1416015625,3.0419921875,1.2353515625,-1.1572265625,-2.3779296875,-4.7705078125,-5.6982421875,-6.9677734375,-8.4326171875,-9.5556640625,-11.5087890625,-7.2119140625,0.5029296875,4.7509765625,4.2626953125,5.3857421875,6.9482421875,7.6806640625,6.5576171875,5.6298828125,5.0927734375,4.3603515625,4.6044921875,4.0185546875,3.3349609375,2.9443359375,1.6259765625,1.2841796875,0.6982421875,0.4541015625,-0.2783203125,-1.8896484375,-2.9150390625,-2.5244140625,5.1904296875,10.8544921875,13.4423828125,12.8076171875,14.6142578125,16.0791015625,17.0068359375,16.9091796875,15.8837890625,15.5908203125,14.6630859375,14.9072265625,14.1259765625,13.2470703125,12.3193359375,11.6357421875,11.1474609375,9.6337890625,9.1455078125,7.7294921875,6.2158203125,5.5810546875,4.0185546875,9.6337890625,17.3974609375,21.5966796875,22.3291015625,23.0615234375,25.5029296875,26.6748046875,26.9189453125,25.7470703125,25.0634765625,25.1611328125,25.7958984375,24.7216796875,23.8427734375,21.8408203125,22.1826171875,20.9619140625,19.9853515625,19.1064453125,18.2763671875,17.7880859375,17.1044921875,16.5673828125,18.6181640625,25.3564453125,31.2158203125,33.4619140625,33.5107421875,33.5107421875,33.9013671875,33.8037109375,32.3876953125,29.8974609375,28.0419921875,28.0908203125,26.4306640625,24.4775390625,22.9638671875,20.9130859375,20.1806640625,16.8115234375,15.2001953125,12.7587890625,10.1220703125,8.6572265625,5.8740234375,5.3369140625,11.1474609375,16.8603515625,18.4228515625,17.1044921875,17.7880859375,18.0322265625,17.2509765625,16.1767578125,13.8330078125,12.3681640625,10.8544921875,10.5126953125,8.2177734375,6.3623046875,5.3857421875,3.3349609375,1.6259765625,0.1611328125,-1.3525390625,-3.7451171875,-5.6005859375,-6.6259765625,-0.5224609375,4.9951171875,6.9970703125,6.8994140625,8.0224609375,10.7568359375,10.7568359375,9.2919921875,9.2919921875,8.4130859375,8.7060546875,7.6806640625,6.9482421875,7.3388671875,5.9716796875,5.0927734375,4.0185546875,3.8232421875,4.3115234375,3.1396484375,2.2607421875,2.7001953125,10.7080078125,16.0791015625,17.6416015625,17.2998046875,18.9111328125,19.7412109375,20.7177734375,19.7412109375,18.8623046875,18.3251953125,18.3740234375,17.4951171875,16.3720703125,16.3232421875,14.5654296875,14.1748046875,13.1005859375,12.2216796875,11.8798828125,11.0986328125,9.3408203125,7.9736328125,11.8798828125,18.8623046875,23.8427734375,25.7958984375,26.2353515625,27.5048828125,28.6767578125,29.5556640625,28.3349609375,27.6025390625,27.0654296875,26.1865234375,25.2099609375,24.2333984375,23.1591796875,21.7919921875,21.2548828125,20.1318359375,19.0576171875,18.3251953125,17.6904296875,16.5673828125,14.8583984375,15.8837890625,23.1103515625,28.8232421875,30.2392578125,30.0927734375,30.5810546875,30.5810546875,30.3857421875,29.0185546875,27.7490234375,25.1611328125,23.5498046875,22.5244140625,19.7900390625,18.0322265625,15.2490234375,13.9794921875,11.5869140625,10.8056640625,8.7548828125,6.7529296875,4.7021484375,2.7001953125,4.6533203125,11.3916015625,15.0537109375,15.2490234375,14.9560546875,14.7607421875,15.5908203125,14.9072265625,12.6123046875,10.5615234375,9.8291015625,8.6083984375,7.4365234375,5.2392578125,3.2861328125,0.9912109375,-1.4013671875,-3.4521484375,-5.1123046875,-6.6748046875,-8.8720703125,-11.1181640625,-8.9208984375,-1.0107421875,3.5791015625,4.7509765625,5.9716796875,9.4873046875,10.0732421875,10.8056640625,9.5361328125,9.2919921875,9.6826171875,9.5849609375,9.0478515625,7.0947265625,7.1923828125,5.9228515625,5.0439453125,3.5791015625,3.4814453125,2.0654296875,1.4306640625,0.2587890625,1.8701171875,10.3662109375,15.1513671875,17.1533203125,18.0322265625,19.8876953125,21.1083984375,21.5478515625,21.8896484375,20.9130859375,20.8642578125,20.7177734375,19.8876953125,20.0341796875,19.6435546875,18.9111328125,17.6416015625,16.9091796875,15.9326171875,16.0791015625,15.0537109375,14.3701171875,13.3447265625,18.9599609375,25.4052734375,28.3349609375,28.9697265625,29.7509765625,30.9228515625,31.5576171875,31.3134765625,30.1904296875,28.6767578125,29.7998046875,29.4091796875,28.5302734375,27.0654296875,26.5283203125,25.6982421875,24.0380859375,23.0615234375,21.7431640625,20.2783203125,19.0087890625,17.1533203125,15.5419921875,19.1064453125,24.7705078125,28.6767578125,29.4091796875,27.9931640625,28.3837890625,29.6044921875,28.8232421875,26.5283203125,24.4775390625,24.2822265625,23.0126953125,21.4013671875,19.4482421875,17.6416015625,17.4462890625,15.2490234375,13.6865234375,11.2939453125,9.4873046875,7.9248046875,5.4833984375,4.1650390625,8.6572265625,15.1513671875,17.2021484375,16.9091796875,16.7138671875,17.2998046875,17.5927734375,16.0302734375,14.2236328125,13.1982421875,12.0263671875,10.6103515625,9.4873046875,8.2666015625,6.7041015625,4.9951171875,5.7763671875,4.1650390625,3.3349609375,2.9931640625,0.6982421875,0.1123046875,4.3115234375,13.0517578125,16.3720703125,15.8349609375,16.4208984375,18.6669921875,19.6435546875,18.7158203125,17.0556640625,17.1533203125,16.7138671875,17.1044921875,16.4208984375,15.9326171875,15.5419921875,15.0048828125,14.6142578125,14.6630859375,14.6630859375,13.7353515625,11.9775390625,10.5126953125,12.7099609375,19.8388671875,26.1376953125,27.9931640625,28.7744140625,30.0439453125,32.3876953125,32.8759765625,32.3876953125,31.6064453125,31.7041015625,31.9482421875,30.7763671875,30.5810546875,29.8486328125,29.1162109375,28.4814453125,26.9677734375,26.1865234375,25.4052734375,24.1845703125,23.3056640625,22.3779296875,24.3798828125,31.9482421875,36.9775390625,38.7841796875,39.6630859375,40.7373046875,41.1767578125,40.6396484375,39.4189453125,37.0751953125,35.4638671875,34.0966796875,31.9970703125,29.9462890625,28.5791015625,26.8212890625,24.6240234375,22.4267578125,19.4482421875,17.9345703125,15.7373046875,13.6865234375,11.7333984375,12.3681640625,19.0576171875,24.8681640625,26.6259765625,25.4052734375,25.5029296875,26.4306640625,27.3583984375,24.1845703125,21.5966796875,20.9130859375,19.8876953125,18.4228515625,17.2509765625,15.3466796875,13.4423828125,12.6611328125,10.8056640625,8.7060546875,6.1669921875,4.4580078125,1.8701171875,-0.3759765625,3.0419921875,10.4638671875,11.6845703125,11.6845703125,11.7333984375,13.6376953125,13.3935546875,12.3681640625,10.3662109375,9.5361328125,9.1943359375,9.3896484375,7.6806640625,6.7529296875,5.7275390625,4.6533203125,3.5302734375,2.8955078125,2.8466796875,1.9189453125,0.2099609375,-0.6201171875,3.3837890625,11.8310546875,16.3232421875,16.0791015625,16.6162109375,17.7392578125,19.5947265625,19.5458984375,17.6904296875,17.7880859375,17.8857421875,16.7138671875,16.3720703125,15.7373046875,16.1767578125,15.4931640625,15.1513671875,14.9560546875,13.7841796875,12.5634765625,11.6845703125,10.4638671875,8.9501953125,11.0498046875,18.4716796875,23.8427734375,25.5517578125,26.4306640625,28.2861328125,30.5322265625,31.2158203125,31.1669921875,30.9228515625,30.9716796875,30.5810546875,31.5087890625,30.2880859375,30.0439453125,28.7744140625,26.9677734375,25.7470703125,24.3310546875,23.2568359375,22.3779296875,21.4990234375,20.2294921875,20.1806640625,23.4033203125,31.3623046875,35.4638671875,38.4423828125,38.0029296875,39.7119140625,40.0048828125,40.2001953125,38.2958984375,36.7822265625,36.1474609375,35.3662109375,34.1943359375,32.5830078125,31.9482421875,30.7275390625,30.1904296875,28.8232421875,27.6513671875,27.1630859375,26.2841796875,24.3310546875,23.4033203125,22.1337890625,21.5478515625,28.6767578125,35.6103515625,38.9306640625,38.3447265625,38.2958984375,38.5400390625,38.5400390625,38.4912109375,35.9033203125,34.1455078125,32.2900390625,31.7041015625,29.5556640625,27.9931640625,26.5283203125,24.8681640625,22.0361328125,19.6435546875,17.2021484375,14.2724609375,12.3193359375,11.0986328125,8.1689453125,7.0458984375,10.2685546875,18.4228515625,21.7919921875,22.1337890625,21.7919921875,22.6708984375,23.0126953125,21.4501953125,19.0576171875,17.7392578125,17.2998046875,15.7861328125,14.5166015625,12.5634765625,11.7333984375,10.5615234375,8.4619140625,6.8994140625,4.5068359375,3.5302734375,1.5283203125,-0.7177734375,-2.5732421875,-2.3779296875,5.5322265625,11.0498046875,12.1728515625,12.1728515625,14.1259765625,15.1513671875,15.2978515625,14.0771484375,12.6123046875,12.7099609375,11.5380859375,11.9775390625,11.0498046875,10.3173828125,8.6083984375,7.7294921875,6.8505859375,6.2158203125,5.3369140625,5.1904296875,2.8955078125,1.9677734375,3.1396484375,11.8798828125,18.3251953125,19.6435546875,19.9365234375,21.3525390625,22.2314453125,23.4521484375,22.7197265625,21.5966796875,21.4501953125,20.7177734375,19.9853515625,19.6923828125,19.5458984375,18.2275390625,17.3486328125,17.1044921875,16.8603515625,15.1025390625,14.7607421875,14.1259765625,12.9541015625,11.9775390625,16.4208984375,23.6962890625,28.2861328125,29.7021484375,29.6044921875,31.5576171875,32.2900390625,33.2177734375,31.4599609375,29.8486328125,29.6044921875,29.7998046875,29.5068359375,28.3349609375,27.5048828125,26.4306640625,25.3564453125,24.6728515625,23.3544921875,22.6220703125,21.1083984375,19.9365234375,18.4228515625,17.5927734375,19.5458984375,27.3583984375,33.2666015625,34.8779296875,34.7314453125,36.0498046875,36.8310546875,37.8076171875,37.3681640625,36.0498046875,35.7568359375,35.9521484375,35.2197265625,33.8525390625,32.9248046875,31.7041015625,30.3857421875,28.3837890625,26.7724609375,25.1611328125,23.0126953125,21.0595703125,19.2529296875,18.2763671875,16.9091796875,24.0380859375,30.6787109375,33.6572265625,33.8525390625,33.2177734375,34.8291015625,34.5361328125,33.1201171875,31.4599609375,29.5556640625,28.5791015625,27.8955078125,25.8447265625,24.3798828125,21.8408203125,20.7666015625,18.3251953125,16.4208984375,14.8095703125,12.3193359375,10.0732421875,8.6572265625,7.1435546875,9.7802734375,16.9580078125,21.2060546875,21.3525390625,20.9130859375,22.2314453125,21.6943359375,21.0107421875,19.3505859375,17.6904296875,17.2998046875,15.7861328125,15.2001953125,14.1259765625,12.5146484375,12.1240234375,11.1474609375,10.1708984375,9.8291015625,9.0478515625,7.9736328125,6.9970703125,6.1669921875,12.8564453125,20.2783203125,23.3056640625,22.1826171875,23.3544921875,25.5517578125,27.1630859375,26.8212890625,25.2587890625,24.6240234375,25.1123046875,24.9658203125,25.1123046875,24.0869140625,23.9892578125,22.3779296875,21.8408203125,20.9619140625,20.8642578125,20.0341796875,19.1552734375,17.7392578125,17.4462890625,24.7216796875,31.8994140625,35.8056640625,36.5869140625,37.1728515625,38.6865234375,40.3955078125,40.8349609375,40.0537109375,38.1005859375,39.0771484375,38.5400390625,37.6123046875,36.7333984375,35.7568359375,35.4638671875,34.6826171875,33.9501953125,33.5595703125,31.5087890625,31.0693359375,29.6533203125,28.8232421875,29.7998046875,37.5634765625,43.5693359375,46.9873046875,48.0615234375,49.6240234375,50.8935546875,52.0654296875,52.2607421875,50.3564453125,50.5517578125,50.0146484375,50.0146484375,48.7939453125,47.7685546875,46.0595703125,45.4736328125,44.8876953125,42.7880859375,42.3486328125,40.9326171875,39.8583984375,38.7353515625,37.7099609375,36.5869140625,40.8349609375,48.3544921875,52.9443359375,52.9931640625,54.0185546875,55.5322265625,55.9228515625,56.0205078125,54.9951171875,53.3349609375,52.2607421875,50.6982421875,49.5751953125,46.3037109375,43.8623046875,42.2998046875,40.0048828125,37.3681640625,35.6591796875,33.6083984375,31.7041015625,29.7021484375,27.4072265625,25.8447265625,26.6259765625,32.6318359375,38.4912109375,39.3212890625,39.4677734375,40.5908203125,42.1533203125,41.1279296875,38.9306640625,37.2216796875,36.3427734375,35.6591796875,33.6572265625,31.9482421875,30.8251953125,29.5068359375,27.8955078125,25.7958984375,23.8427734375,22.2314453125,20.9130859375,19.3017578125,17.1044921875,16.8115234375,18.1787109375,26.1376953125,32.9248046875,34.6337890625,35.5615234375,38.1005859375,39.7119140625,39.7119140625,38.4423828125,36.4404296875,35.9033203125,35.7568359375,35.2685546875,33.9501953125,33.0224609375,32.0947265625,31.4111328125,30.9716796875,30.1904296875,29.0673828125,28.7255859375,26.5771484375,25.6982421875,25.1611328125,24.1357421875,31.3134765625,38.6376953125,41.2255859375,40.9814453125,42.2998046875,45.7666015625,46.3525390625,45.9619140625,44.2529296875,43.9599609375,43.6181640625,42.5927734375,41.9091796875,40.4443359375,39.1748046875,38.1982421875,37.1728515625,36.0009765625,35.0732421875,34.5849609375,33.3642578125,32.1435546875,31.6064453125,30.3857421875,29.4091796875,34.8291015625,41.5673828125,45.5712890625,46.7919921875,48.0126953125,49.7216796875,50.9912109375,51.8212890625,50.5517578125,48.8427734375,48.7939453125,47.9638671875,47.2314453125,46.0107421875,44.7412109375,43.1298828125,41.5185546875,40.1513671875,38.1982421875,35.3662109375,33.6083984375,31.4599609375,29.8974609375,28.2861328125,27.0166015625,26.6259765625,32.7294921875,38.2958984375,40.3955078125,39.3701171875,39.0771484375,40.3955078125,41.0791015625,40.0537109375,37.7587890625,36.5380859375,34.8779296875,34.1455078125,32.2900390625,30.0927734375,28.7255859375,26.5283203125,25.5517578125,23.3544921875,21.4013671875,19.8388671875,18.0810546875,16.1767578125,15.4931640625,12.5146484375,11.9775390625,17.4462890625,24.2333984375,26.4306640625,25.6494140625,26.4306640625,28.5302734375,28.3837890625,27.7978515625,26.6259765625,25.8935546875,26.6748046875,27.1630859375,26.7236328125,25.5517578125,25.6982421875,24.7216796875,23.6962890625,22.3291015625,22.0849609375,20.0341796875,19.0087890625,19.0087890625,17.9833984375,16.7138671875,20.2783203125,29.6044921875,35.0244140625,35.5126953125,35.8056640625,38.3935546875,38.9794921875,40.2490234375,38.5888671875,37.1240234375,36.5380859375,36.2451171875,35.5126953125,34.7802734375,34.1943359375,32.7294921875,32.7294921875,31.5576171875,30.2880859375,30.0439453125,27.9443359375,27.4072265625,26.6748046875,25.5029296875,24.6728515625,28.6767578125,36.2939453125,40.6396484375,42.3486328125,42.6904296875,44.0087890625,45.2783203125,45.8642578125,44.0576171875,42.5439453125,42.5439453125,41.6650390625,41.2744140625,40.5908203125,40.3955078125,40.0537109375,39.1259765625,37.7587890625,36.5869140625,35.0244140625,33.0224609375,31.2158203125,30.8251953125,29.7021484375,28.6279296875,32.2900390625,41.2744140625,45.5224609375,47.5244140625,46.4013671875,47.4755859375,48.1591796875,49.4287109375,48.2080078125,47.0361328125,46.4501953125,46.4013671875,45.2294921875,44.9853515625,44.3017578125,42.6416015625,41.0791015625,39.2724609375,36.9287109375,35.0244140625,33.0712890625,31.2158203125,29.5556640625,27.5537109375,24.9169921875,24.6728515625,31.4111328125,38.0517578125,40.7861328125,39.1748046875,38.9306640625,38.7841796875,38.7353515625,38.5400390625,36.2939453125,34.4873046875,34.1455078125,33.1201171875,30.5322265625,29.1650390625,26.6748046875,25.4052734375,22.9638671875,21.4013671875,19.7412109375,18.6181640625,16.3720703125,15.0048828125,13.0517578125,12.4169921875,19.1064453125,25.7958984375,27.4072265625,26.2841796875,25.8447265625,27.4072265625,27.7001953125,25.6494140625,24.3798828125,23.4033203125,23.4521484375,22.8173828125,22.6708984375,22.5732421875,21.4990234375,21.0595703125,19.7900390625,17.9833984375,16.9091796875,16.5673828125,15.1513671875,13.4423828125,12.2705078125,17.3974609375,26.1865234375,30.8251953125,30.9716796875,31.4111328125,33.2177734375,34.8291015625,34.9755859375,32.4853515625,31.9482421875,31.4599609375,31.5576171875,31.0693359375,29.9462890625,28.6767578125,27.9931640625,27.6025390625,27.1630859375,25.7470703125,24.9658203125,23.3544921875,22.9638671875,21.3037109375,21.6455078125,29.7021484375,35.9521484375,37.7587890625,38.6865234375,40.1025390625,41.9091796875,42.9833984375,42.3974609375,41.8115234375,41.1279296875,40.4931640625,39.9560546875,40.0048828125,39.0283203125,37.9541015625,36.9775390625,36.0498046875,35.0244140625,34.1455078125,33.3642578125,32.0947265625,31.5576171875,29.5068359375,29.2626953125,37.3681640625,44.6435546875,47.5244140625,47.9150390625,49.7216796875,53.7255859375,54.7509765625,54.1650390625,51.9677734375,51.5283203125,51.2841796875,50.3564453125,49.3798828125,48.7939453125,46.7919921875,46.2060546875,44.3017578125,42.5927734375,41.5673828125,39.4189453125,37.7099609375,35.9033203125,34.3408203125,31.8505859375,33.4130859375,40.0537109375,46.4990234375,46.4013671875,46.4501953125,47.7685546875,48.9892578125,49.9169921875,48.1103515625,46.0107421875,45.5712890625,45.2294921875,44.1552734375,42.2509765625,40.0537109375,38.0517578125,36.6357421875,34.9267578125,32.5830078125,32.1923828125,30.1904296875,28.8720703125,25.9423828125,24.4775390625,23.9892578125,29.2626953125,36.1474609375,37.8076171875,37.4169921875,38.8330078125,40.6884765625,41.9580078125,41.3720703125,38.8818359375,38.1982421875,38.3447265625,38.6865234375,37.6123046875,36.7822265625,35.6591796875,34.5849609375,33.4130859375,33.1201171875,32.5830078125,30.9716796875,30.3369140625,29.2626953125,28.1884765625,26.9189453125,29.6044921875,38.9794921875,43.8134765625,44.0087890625,45.4248046875,48.9892578125,50.6982421875,51.9677734375,51.4794921875,50.2587890625,50.2099609375,50.8935546875,49.4287109375,49.0869140625,48.4033203125,46.6943359375,46.3037109375,44.8388671875,44.8876953125,43.3251953125,42.6904296875,40.9814453125,40.1513671875,38.8818359375,38.3935546875,39.7607421875,47.9150390625,53.2861328125,55.7275390625,56.3623046875,58.6572265625,61.8310546875,63.8818359375,62.5634765625,61.8798828125,61.0986328125,61.6357421875,60.5126953125,59.9755859375,59.2431640625,58.3154296875,57.3876953125,56.2158203125,54.5068359375,53.3349609375,52.5048828125,51.2353515625,50.0634765625,49.6240234375,48.6474609375,47.4755859375,48.8916015625,56.6064453125,63.1494140625,66.9091796875,68.0322265625,69.8388671875,71.6943359375,72.0849609375,71.1083984375,68.6181640625,67.1044921875,65.8837890625,63.7841796875,62.0263671875,59.1943359375,56.3623046875,54.7021484375,52.6513671875,49.9169921875,48.1591796875,44.9365234375,43.4228515625,41.1279296875,39.8095703125,37.9541015625,35.8056640625,35.3173828125,41.2255859375,48.5986328125,50.4052734375,50.4052734375,51.6748046875,52.5537109375,53.5302734375,52.4560546875,49.6728515625,48.0126953125,47.1826171875,46.8408203125,44.6435546875,42.6416015625,41.3232421875,38.1982421875,37.1240234375,34.7802734375,33.9013671875,32.0458984375,30.0927734375,28.8232421875,26.7236328125,25.3564453125,25.5517578125,33.6572265625,40.2001953125,41.3720703125,41.5673828125,43.3740234375,46.0595703125,47.0849609375,45.4736328125,43.1787109375,43.4228515625,42.2998046875,42.2998046875,41.7626953125,40.6884765625,39.7607421875,39.5166015625,38.6865234375,38.3935546875,36.9287109375,36.3916015625,34.5849609375,33.9990234375,31.8505859375,30.6787109375,37.1728515625,45.3759765625,49.6240234375,50.8935546875,51.4794921875,54.4091796875,56.1669921875,55.9716796875,54.3115234375,54.1162109375,54.1650390625,53.9697265625,53.8720703125,53.2861328125,51.2841796875,51.0888671875,50.4052734375,49.4775390625,47.8173828125,46.9384765625,45.4248046875,44.7412109375,42.9345703125,42.0068359375,40.7373046875,43.7158203125,52.5537109375,57.7294921875,59.1455078125,59.6826171875,60.7080078125,62.7099609375,63.9306640625,63.3935546875,62.3681640625,61.9287109375,61.1474609375,60.3662109375,58.7548828125,57.0947265625,56.4111328125,54.5556640625,53.2373046875,51.1376953125,49.2333984375,47.1826171875,44.8876953125,43.4228515625,41.4208984375,39.9560546875,38.2470703125,43.5693359375,51.2353515625,53.4326171875,52.8955078125,53.2373046875,54.1162109375,55.1904296875,55.6298828125,53.5791015625,51.4306640625,50.7470703125,49.8193359375,48.2080078125,46.3037109375,44.7412109375,43.2763671875,40.8837890625,39.2724609375,36.9775390625,34.8779296875,32.8271484375,30.4345703125,28.7744140625,27.0654296875,25.7958984375,32.7294921875,40.1513671875,42.4462890625,41.0302734375,42.7880859375,44.3017578125,44.6435546875,44.2041015625,42.1044921875,41.6162109375,41.8603515625,42.1533203125,42.1533203125,41.3232421875,40.6884765625,40.1025390625,39.6142578125,38.7353515625,37.2705078125,36.8310546875,34.8779296875,33.6083984375,32.7294921875,31.9482421875,40.4931640625,47.3779296875,50.2099609375,51.2353515625,53.1884765625,55.6787109375,57.0458984375,56.2646484375,55.1416015625,54.7509765625,54.2626953125,53.4814453125,53.5791015625,52.6025390625,51.8212890625,50.7470703125,49.6240234375,48.9404296875,48.4033203125,46.8896484375,46.3037109375,44.2041015625,43.8623046875,43.5205078125,51.0400390625,59.0966796875,63.4423828125,65.2490234375,65.8349609375,67.8857421875,69.3994140625,69.2529296875,68.1298828125,67.5927734375,67.9345703125,67.4462890625,66.8603515625,65.7373046875,65.3466796875,64.2724609375,64.0283203125,63.0517578125,61.8310546875,61.1474609375,59.9267578125,58.1689453125,56.6552734375,56.0205078125,55.5810546875,63.6865234375,69.3994140625,71.5966796875,71.2060546875,71.1572265625,71.7431640625,71.8408203125,71.4990234375,68.3740234375,66.8115234375,66.2744140625,64.7119140625,62.0263671875,59.4384765625,56.5087890625,55.1416015625,53.2373046875,51.2841796875,50.0146484375,47.9150390625,46.7431640625,44.7412109375,43.1298828125,41.6650390625,48.4033203125,54.1650390625,55.8740234375,54.6044921875,55.6787109375,56.1669921875,56.5576171875,54.1650390625,52.1630859375,51.4794921875,50.2587890625,50.0634765625,48.0615234375,46.6455078125,45.0830078125,43.7646484375,41.9091796875,40.3466796875,39.0771484375,38.5888671875,36.9287109375,36.4892578125,36.8310546875,45.5224609375,51.4794921875,53.9697265625,53.9208984375,56.0693359375,58.5595703125,58.5107421875,57.4365234375,56.1181640625,55.5322265625,54.6533203125,54.6044921875,53.7744140625,52.6025390625,52.4072265625,51.4794921875,50.0634765625,50.5029296875,49.7216796875,48.4521484375,47.2802734375,46.2548828125,44.9365234375,51.2841796875,58.9990234375,63.1494140625,64.2236328125,66.5673828125,67.8857421875,69.7412109375,70.6201171875,69.2529296875,68.7158203125,68.2763671875,68.1298828125,67.2021484375,65.8349609375,65.1513671875,64.4189453125,63.7841796875,62.9052734375,61.6845703125,60.3662109375,59.0478515625,57.9736328125,57.4365234375,56.6552734375,61.0498046875,68.5693359375,73.8427734375,74.9169921875,75.6982421875,77.8955078125,78.7744140625,79.1650390625,77.7490234375,76.1376953125,74.6728515625,71.9384765625,70.4736328125,68.0322265625,65.4443359375,64.1259765625,62.0263671875,59.8291015625,57.8271484375,55.5322265625,53.5302734375,51.4794921875,48.1103515625,45.8642578125,45.3759765625,50.8935546875,57.6318359375,59.5849609375,59.5361328125,60.3662109375,61.2939453125,61.3916015625,61.0498046875,58.2177734375,56.3134765625,55.2880859375,54.2626953125,51.9189453125,50.2099609375,47.2802734375,44.6923828125,42.4951171875,40.2490234375,39.3212890625,36.8798828125,35.6591796875,33.6572265625,31.8994140625,34.3408203125,43.5205078125,47.1337890625,48.6962890625,49.1845703125,51.0400390625,52.9931640625,52.5048828125,51.3330078125,50.3076171875,49.8193359375,49.4287109375,48.3056640625,47.5732421875,45.6689453125,44.8388671875,44.1552734375,43.4716796875,42.7392578125,41.5673828125,40.2490234375,39.0771484375,38.1982421875,42.7392578125,51.5771484375,56.2158203125,57.6318359375,59.1455078125,60.9033203125,62.6123046875,62.6611328125,61.1962890625,60.4638671875,60.1220703125,59.9755859375,59.6337890625,58.9990234375,58.1689453125,57.3876953125,56.1669921875,55.2880859375,54.7509765625,52.9443359375,52.4072265625,51.9677734375,50.5517578125,49.7705078125,52.1630859375,60.4638671875,67.4462890625,70.3271484375,70.9619140625,72.1337890625,74.2822265625,75.6005859375,75.1123046875,73.3056640625,72.8173828125,72.4267578125,71.9873046875,71.4990234375,70.1806640625,69.3017578125,68.5205078125,67.2509765625,66.9091796875,65.2490234375,62.7099609375,60.9033203125,57.7294921875,55.0439453125,52.8955078125,56.1669921875,62.8564453125,67.4462890625,67.9833984375,67.5439453125,67.7880859375,67.3486328125,67.1044921875,65.7861328125,62.9052734375,62.0263671875,61.7822265625,59.2919921875,57.3876953125,55.1416015625,53.4326171875,51.7236328125,50.2099609375,47.4267578125,45.9130859375,44.1552734375,41.4208984375,39.3212890625,38.2958984375,43.6181640625,50.6005859375,53.5791015625,52.7978515625,53.0419921875,54.8974609375,55.2392578125,54.3115234375,51.1865234375,50.3564453125,49.6728515625,49.6728515625,48.8427734375,48.5009765625,47.3779296875,47.0361328125,45.3759765625,44.1064453125,42.6416015625,41.5673828125,39.8583984375,38.6376953125,36.8798828125,42.8857421875,50.4052734375,53.6279296875,54.8486328125,55.7763671875,58.1201171875,58.9013671875,58.5107421875,57.7783203125,56.8505859375,56.8994140625,56.4599609375,56.5087890625,55.8740234375,54.9462890625,54.1650390625,52.3583984375,52.0166015625,50.5029296875,49.5263671875,48.5009765625,47.3779296875,45.5224609375,43.9111328125,50.2587890625,58.7548828125,62.6611328125,62.7099609375,64.3212890625,65.6884765625,67.1044921875,67.2021484375,65.8349609375,64.6630859375,65.0048828125,64.4189453125,64.3701171875,64.1748046875,62.8076171875,61.9287109375,61.5380859375,60.4638671875,59.3896484375,58.0712890625,57.4853515625,55.7763671875,54.3115234375,53.3837890625,52.7001953125,59.8291015625,67.3486328125,70.2294921875,71.1572265625,72.2314453125,74.4775390625,75.5517578125,75.6982421875,73.8916015625,72.7197265625,72.7197265625,72.0361328125,70.5224609375,69.7900390625,68.3740234375,67.8369140625,67.0068359375,65.5908203125,64.3212890625,62.9541015625,61.3916015625,59.4384765625,58.0224609375,55.2880859375,54.3115234375,59.4873046875,66.2744140625,69.0576171875,69.2529296875,69.2041015625,70.2783203125,70.9130859375,69.2529296875,67.4462890625,65.3955078125,64.7607421875,63.6376953125,62.1240234375,60.3173828125,57.8759765625,56.0693359375,55.1904296875,53.2373046875,51.3330078125,49.4775390625,47.0849609375,45.7177734375,43.5205078125,41.9580078125,43.4716796875,51.9677734375,56.0205078125,56.6552734375,56.1669921875,57.4365234375,58.6572265625,58.2177734375,55.5322265625,53.5791015625,52.4560546875,51.5283203125,50.4052734375,49.0380859375,47.5732421875,46.1572265625,45.2783203125,44.0087890625,42.7392578125,41.7626953125,40.6884765625,39.4677734375,37.9052734375,37.1240234375,42.8857421875,50.9423828125,54.5556640625,53.8232421875,54.8486328125,57.9736328125,59.7802734375,59.6337890625,57.1923828125,56.6552734375,57.0947265625,56.8994140625,55.6298828125,54.4580078125,54.3115234375,52.8955078125,51.7236328125,50.5517578125,50.3076171875,49.4775390625,47.9150390625,46.8896484375,45.8642578125,45.1806640625,49.5263671875,58.5595703125,64.0283203125,64.7119140625,65.2978515625,67.9345703125,68.7158203125,69.8876953125,68.4716796875,67.2021484375,66.1279296875,66.8115234375,65.8837890625,65.3466796875,63.4423828125,62.9541015625,61.6845703125,61.1474609375,59.6826171875,59.4873046875,57.6318359375,56.8017578125,55.4833984375,54.5068359375,54.1650390625,58.1689453125,66.4697265625,71.2060546875,72.2802734375,73.8916015625,75.1123046875,76.9677734375,78.0419921875,77.1142578125,75.9423828125,74.9169921875,74.6728515625,74.5751953125,73.3544921875,72.0361328125,70.8642578125,70.5712890625,68.9111328125,67.5927734375,64.9560546875,62.7099609375,59.8779296875,57.6318359375,55.6787109375,53.6279296875,51.3330078125,57.6806640625,64.0771484375,67.7392578125,67.1533203125,68.2275390625,68.9599609375,69.4970703125,68.4228515625,66.0791015625,65.1025390625,64.3212890625,63.2958984375,61.2939453125,58.4619140625,57.0458984375,55.1904296875,53.0419921875,51.5771484375,48.9892578125,47.4267578125,45.1318359375,43.5693359375,41.6650390625,39.6142578125,40.8349609375,48.7939453125,54.4580078125,54.2138671875,53.8720703125,54.8974609375,55.9228515625,56.3623046875,54.6533203125,51.5283203125,50.5029296875,49.4287109375,48.7939453125,47.5732421875,46.3525390625,43.3740234375,41.8115234375,40.9326171875,40.2490234375,38.8818359375,38.1005859375,36.7822265625,35.7568359375,35.3173828125,41.4208984375,49.7705078125,53.1396484375,53.6767578125,54.4091796875,56.7529296875,57.2900390625,57.1435546875,55.9716796875,54.7998046875,54.7509765625,55.4345703125,54.4091796875,52.8466796875,53.0419921875,52.2119140625,51.2841796875,51.2841796875,50.5517578125,49.1357421875,48.4033203125,47.5732421875,46.2060546875,45.7666015625,52.5537109375,60.4150390625,64.3701171875,64.4677734375,66.2255859375,68.1298828125,69.2041015625,68.9599609375,68.5205078125,67.4462890625,67.6416015625,67.5927734375,66.6162109375,66.0302734375,64.7119140625,64.6142578125,63.8330078125,62.4658203125,61.0009765625,59.6826171875,58.2666015625,56.5576171875,55.4833984375,54.7509765625,55.5322265625,63.9794921875,70.6689453125,72.4267578125,73.6474609375,75.0146484375,75.7470703125,76.2841796875,75.0634765625,72.9638671875,70.4736328125,69.1552734375,67.7880859375,65.9814453125,64.1259765625,61.8798828125,60.7568359375,57.8759765625,56.2646484375,53.6279296875,51.9189453125,49.6728515625,47.0361328125,44.8388671875,42.9345703125,46.1083984375,53.4326171875,58.1201171875,57.9736328125,57.3876953125,59.3896484375,59.3896484375,59.0478515625,56.6064453125,54.1650390625,53.6279296875,52.5048828125,51.4794921875,50.0634765625,47.8662109375,46.4990234375,45.1806640625,43.5205078125,40.8837890625,38.7841796875,37.4169921875,35.0732421875,33.0224609375,34.1943359375,41.6650390625,47.3291015625,48.5009765625,49.6728515625,51.5283203125,53.1884765625,53.7255859375,52.0166015625,50.6494140625,50.2587890625,50.5029296875,49.9169921875,48.6962890625,47.8173828125,46.4013671875,45.8154296875,44.7412109375,43.5693359375,42.5439453125,42.1044921875,41.2744140625,39.3701171875,39.6630859375,46.3525390625,54.4580078125,58.1201171875,59.1455078125,60.4150390625,62.3681640625,64.3212890625,63.6865234375,62.3193359375,61.3427734375,60.9521484375,61.0498046875,60.0732421875,58.7060546875,58.6572265625,57.8759765625,56.8994140625,55.9228515625,54.6533203125,53.8720703125,52.6025390625,50.8935546875,50.4541015625,49.0869140625,51.9677734375,60.6103515625,66.2255859375,68.6669921875,69.3017578125,72.0361328125,73.1103515625,73.8916015625,72.7685546875,71.8896484375,71.9873046875,71.9873046875,71.0107421875,70.3759765625,69.1552734375,67.5439453125,67.4462890625,65.5419921875,63.5888671875,61.1962890625,58.1201171875,56.0205078125,53.8232421875,52.1142578125,50.1611328125,50.9423828125,58.3154296875,63.7353515625,64.3212890625,63.9794921875,64.3701171875,64.8583984375,65.5419921875,63.1005859375,61.3916015625,59.5361328125,58.4619140625,57.0947265625,55.2392578125,53.3837890625,52.2607421875,49.7216796875,48.0126953125,46.1572265625,44.5458984375,42.4462890625,39.8095703125,37.0751953125,35.6103515625,35.6103515625,43.3740234375,50.0634765625,50.6982421875,50.9423828125,51.8212890625,52.2607421875,52.4560546875,49.8681640625,47.5244140625,46.6943359375,46.6455078125,45.5712890625,44.7900390625,44.8388671875,44.5947265625,44.1552734375,42.5927734375,41.7138671875,41.7626953125,40.8837890625,39.5166015625,37.2705078125,37.5146484375,45.6201171875,53.1884765625,56.1669921875,56.8994140625,58.2666015625,59.9755859375,61.4404296875,61.0498046875,59.5361328125,58.9501953125,58.6083984375,58.6083984375,58.5595703125,57.0947265625,56.2646484375,55.6298828125,55.3857421875,54.6533203125,53.7255859375,52.6025390625,51.8212890625,50.8935546875,49.6240234375,50.0634765625,56.8017578125,65.0048828125,69.2041015625,70.2783203125,71.1572265625,73.0615234375,73.5986328125,73.3056640625,72.1826171875,70.7666015625,70.4736328125,70.3759765625,70.1318359375,69.0576171875,68.5693359375,67.6904296875,66.0302734375,65.7373046875,64.7119140625,63.3935546875,62.4658203125,61.3427734375,59.1455078125,58.7060546875,60.5615234375,68.9599609375,73.5009765625,75.0634765625,74.0869140625,74.1357421875,73.6474609375,73.7451171875,71.6943359375,70.0341796875,68.0322265625,67.2509765625,65.1025390625,63.1494140625,60.9033203125,58.9013671875,56.9970703125,55.3369140625,52.5537109375,50.1611328125,48.4033203125,46.0107421875,43.1787109375,42.3486328125,41.0791015625,47.3779296875,54.1162109375,56.4111328125,55.8251953125,55.9228515625,56.5576171875,57.2900390625,54.9462890625,52.9443359375,52.1142578125,51.7236328125,50.9912109375,48.7939453125,47.4755859375,45.0341796875,42.5439453125,40.7861328125,39.1259765625,37.9541015625,36.3427734375,36.1474609375,34.9267578125,33.8037109375,38.4912109375,48.4033203125,53.6767578125,53.7255859375,54.5556640625,56.8017578125,58.2666015625,58.8525390625,56.7041015625,55.7275390625,55.7763671875,55.2880859375,55.1416015625,54.3603515625,53.8232421875,53.1884765625,51.8701171875,51.0400390625,51.2353515625,50.1611328125,49.6240234375,48.5986328125,47.7197265625,47.4267578125,55.1416015625,63.1005859375,66.6650390625,66.9580078125,68.0322265625,70.8642578125,71.9384765625,71.6943359375,70.3271484375,70.8154296875,70.5224609375,70.8642578125,70.0830078125,69.4482421875,68.8134765625,68.0810546875,67.1533203125,66.9091796875,65.2490234375,64.6142578125,63.6376953125,62.2216796875,61.0009765625,60.1708984375,63.6865234375,72.2802734375,77.2119140625,79.3115234375,80.7275390625,82.1435546875,82.3388671875,82.7294921875,81.8017578125,80.3857421875,79.7509765625,78.8720703125,77.5537109375,74.5751953125,72.2314453125,70.1318359375,68.2763671875,64.8095703125,62.4658203125,60.3173828125,57.4853515625,55.4345703125,53.8232421875,51.7236328125,50.1611328125,54.4580078125,61.4404296875,66.1767578125,66.5185546875,66.6650390625,67.5927734375,68.0810546875,67.7392578125,65.9326171875,63.6865234375,63.1982421875,61.2451171875,59.6337890625,58.1689453125,56.0693359375,54.4091796875,52.2119140625,50.5029296875,48.3056640625,46.6943359375,45.5224609375,43.2763671875,40.3466796875,40.5908203125,49.3310546875,55.1416015625,56.7041015625,54.9951171875,57.2900390625,58.6572265625,61.4404296875,59.8291015625,58.2177734375,57.3388671875,58.6083984375,58.3642578125,57.9248046875,56.7529296875,56.1181640625,54.8974609375,53.8232421875,52.5048828125,51.8701171875,50.4541015625,49.0380859375,46.6943359375,46.0595703125,52.0166015625,59.8779296875,63.6865234375,64.4189453125,65.9814453125,68.1787109375,69.9365234375,70.0341796875,69.1552734375,67.9833984375,68.3251953125,67.6416015625,67.2509765625,66.5185546875,65.4443359375,63.6376953125,63.0029296875,61.5869140625,60.0732421875,59.8291015625,58.4619140625,56.7041015625,55.6298828125,53.9697265625,54.4091796875,61.8310546875,68.7646484375,71.4013671875,70.3759765625,72.3291015625,74.4287109375,76.3818359375,75.7958984375,74.1845703125,73.4033203125,72.6220703125,72.3291015625,71.4013671875,71.4990234375,70.2294921875,68.6669921875,67.7392578125,66.5673828125,65.4931640625,62.9541015625,62.1728515625,60.9033203125,59.6826171875,58.2666015625,56.7529296875,62.1728515625,70.2294921875,74.3798828125,75.8935546875,76.4794921875,78.1396484375,79.9462890625,80.6787109375,79.3603515625,77.7490234375,76.8212890625,76.6748046875,75.7958984375,74.1845703125,72.9150390625,72.7685546875,71.0107421875,69.7900390625,68.7646484375,67.0556640625,66.1767578125,64.4677734375,64.6142578125,63.4423828125,62.1728515625,60.6103515625,66.1767578125,73.4521484375,76.4306640625,76.6748046875,76.5283203125,76.8212890625,77.4072265625,76.4794921875,75.0146484375,73.0615234375,71.8896484375,71.7919921875,70.1318359375,66.7138671875,64.7119140625,62.0751953125,59.3896484375,56.7529296875,54.7998046875,52.1142578125,50.9423828125,48.5498046875,46.8896484375,45.3271484375,42.5439453125,45.8642578125,54.4091796875,60.4638671875,60.1708984375,59.7314453125,60.9033203125,61.7822265625,59.7802734375,57.9736328125,56.2646484375,55.2880859375,54.4091796875,52.8466796875,52.0166015625,50.3564453125,48.2568359375,47.5732421875,46.2548828125,44.3994140625,43.6181640625,42.6416015625,41.3720703125,39.9560546875,39.9560546875,47.6708984375,55.6298828125,57.1435546875,57.1435546875,58.7548828125,60.2685546875,61.0498046875,60.5126953125,58.8525390625,58.0224609375,58.2666015625,58.3642578125,57.9248046875,57.7294921875,57.2900390625,56.1181640625,55.4345703125,54.2138671875,53.9697265625,53.0419921875,51.2841796875,49.3310546875,48.7451171875,50.0146484375,58.3154296875,64.8583984375,66.9580078125,67.2509765625,68.9599609375,70.5712890625,71.4501953125,70.9619140625,69.4482421875,69.1552734375,69.4970703125,69.2041015625,68.0322265625,67.3486328125,66.5185546875,65.9814453125,65.3955078125,64.6142578125,62.8564453125,61.4404296875,60.2197265625,59.0478515625,58.1201171875,56.8017578125,62.3681640625,70.6689453125,75.2587890625,76.0400390625,76.8212890625,79.2138671875,81.5576171875,81.6064453125,80.0439453125,79.0673828125,78.1396484375,77.8955078125,76.8701171875,75.2587890625,75.0634765625,73.5986328125,72.3291015625,71.0595703125,69.8388671875,68.5693359375,67.3486328125,65.6396484375,63.9306640625,62.8076171875,61.0498046875,65.4931640625,73.0615234375,77.6025390625,78.6279296875,78.9208984375,79.7021484375,81.1181640625,81.1181640625,79.7021484375,77.5537109375,76.7724609375,76.0400390625,73.9404296875,71.6455078125,69.5947265625,68.8134765625,66.7626953125,64.6630859375,62.5146484375,60.7568359375,58.6083984375,56.8017578125,54.1162109375,52.4560546875,51.1865234375,54.7998046875,62.9052734375,66.3232421875,66.0302734375,67.1533203125,68.8134765625,69.5458984375,68.8134765625,66.3720703125,65.1025390625,64.2236328125,64.1259765625,63.0029296875,61.9287109375,60.3662109375,59.0966796875,57.8759765625,57.8759765625,57.0458984375,56.4599609375,55.4345703125,53.7255859375,51.8701171875,51.0400390625,55.9228515625,64.6142578125,69.1064453125,69.6435546875,70.6201171875,74.5751953125,76.0888671875,76.2841796875,74.9169921875,74.7216796875,74.1357421875,74.6728515625,74.0869140625,73.6474609375,73.0615234375,71.9873046875,71.0595703125,69.4970703125,68.7646484375,67.8857421875,66.2255859375,65.4931640625,64.9560546875,63.3447265625,63.4912109375,71.6943359375,78.6279296875,82.3876953125,83.6083984375,85.2685546875,88.2958984375,88.9306640625,89.6630859375,88.6376953125,87.5634765625,86.8310546875,86.8310546875,86.4892578125,85.5615234375,84.7802734375,84.4873046875,83.1689453125,81.3623046875,80.8251953125,79.8486328125,78.2373046875,75.8935546875,75.5517578125,73.9404296875,71.9873046875,77.4560546875,84.1455078125,86.3916015625,87.0263671875,86.7333984375,87.3681640625,88.7353515625,88.4423828125,86.0986328125,83.5595703125,81.8017578125,80.8740234375,78.7744140625,76.7724609375,73.9892578125,73.0126953125,69.9365234375,67.2021484375,64.9072265625,62.5634765625,60.3662109375,58.5107421875,56.9970703125,54.6044921875,53.4326171875,59.1455078125,67.9833984375,70.3759765625,68.9599609375,69.2529296875,70.7177734375,71.0595703125,69.4970703125,67.4951171875,64.4189453125,64.4189453125,63.3447265625,61.3427734375,59.6826171875,58.2177734375,56.0693359375,55.6787109375,54.7021484375,53.6767578125,53.5791015625,52.8955078125,51.4794921875,49.9169921875,52.6025390625,62.2216796875,67.9345703125,69.2041015625,69.3994140625,72.4755859375,73.6962890625,75.4052734375,73.5009765625,72.3291015625,72.8173828125,72.4267578125,71.5478515625,70.5712890625,70.4736328125,69.5947265625,68.3740234375,67.7392578125,67.1044921875,66.2744140625,65.3466796875,63.3447265625,62.1240234375,60.8544921875,63.6376953125,72.2802734375,78.5791015625,79.7509765625,80.9228515625,83.4619140625,84.7314453125,86.0498046875,84.9755859375,83.3642578125,82.6806640625,82.7783203125,81.8994140625,81.4111328125,80.5322265625,79.1162109375,78.0908203125,77.2607421875,76.2353515625,75.3564453125,74.6728515625,72.8662109375,71.4990234375,69.7900390625,69.4970703125,74.2333984375,82.8759765625,85.9033203125,86.9775390625,87.8076171875,88.8330078125,90.0537109375,91.2744140625,89.9560546875,88.0517578125,88.0517578125,88.3935546875,87.2216796875,85.3662109375,84.4873046875,82.7783203125,80.3857421875,77.7490234375,75.4541015625,72.6220703125,70.9619140625,69.4482421875,66.7626953125,63.8330078125,62.7099609375,69.1552734375,76.3330078125,78.9697265625,78.4814453125,77.7490234375,78.7255859375,78.7744140625,78.2373046875,75.9912109375,73.5009765625,73.3544921875,72.4755859375,71.1083984375,68.3251953125,66.8115234375,64.7119140625,63.4423828125,60.8056640625,59.3896484375,57.9248046875,55.9716796875,54.3115234375,51.6259765625,51.5771484375,58.8525390625,65.1513671875,65.8837890625,64.9560546875,66.9091796875,67.3486328125,67.5439453125,65.0048828125,63.2958984375,62.7099609375,63.1494140625,62.5634765625,61.6357421875,61.1474609375,60.3662109375,59.0966796875,58.0712890625,57.3876953125,56.8017578125,55.9228515625,53.8720703125,53.3837890625,57.2412109375,66.8115234375,71.5966796875,72.1337890625,73.6474609375,76.2841796875,78.0908203125,77.6513671875,76.2353515625,76.1865234375,75.5517578125,75.4052734375,74.6728515625,74.5263671875,72.8173828125,72.8173828125,72.1337890625,71.5966796875,70.9619140625,69.5458984375,69.1552734375,68.5205078125,66.3720703125,66.9091796875,74.9658203125,82.6806640625,85.3173828125,86.2939453125,88.5888671875,90.2978515625,92.0068359375,91.2255859375,91.1279296875,91.0302734375,89.8583984375,89.5166015625,88.9794921875,87.3193359375,86.4892578125,85.1220703125,83.9501953125,82.3876953125,81.9970703125,80.9228515625,79.7021484375,77.9443359375,77.2607421875,76.3818359375,83.8525390625,91.1767578125,94.0576171875,94.1552734375,94.3017578125,94.3017578125,93.7646484375,93.3251953125,91.7138671875,90.1513671875,89.3701171875,87.8076171875,86.0009765625,85.1708984375,82.7783203125,81.8505859375,79.8974609375,77.0654296875,75.5029296875,73.1591796875,69.9853515625,68.2763671875,65.8837890625,65.5908203125,73.5009765625,79.5556640625,80.4833984375,79.6533203125,80.7275390625,80.7763671875,81.0205078125,78.4814453125,76.6259765625,75.4052734375,74.6728515625,73.7939453125,71.5478515625,69.4970703125,68.2275390625,66.1767578125,64.2236328125,62.4169921875,61.1474609375,59.6337890625,57.4365234375,55.1416015625,57.6318359375,66.7626953125,71.3037109375,71.3525390625,72.6220703125,74.3798828125,76.2841796875,76.5283203125,74.4287109375,73.7451171875,73.5498046875,73.1103515625,72.3779296875,71.9384765625,71.0595703125,69.3994140625,68.6181640625,68.0322265625,67.3974609375,66.7626953125,66.3232421875,64.5166015625,63.4423828125,67.6904296875,77.4560546875,82.7783203125,84.3408203125,84.5849609375,86.0498046875,87.8076171875,89.4677734375,88.1982421875,87.9052734375,88.1005859375,87.7099609375,87.5146484375,85.8056640625,84.6826171875,83.7548828125,83.3154296875,81.8017578125,80.8251953125,79.7021484375,79.1650390625,77.4072265625,75.9912109375,75.2099609375,78.2373046875,87.0751953125,92.4462890625,94.5458984375,94.5458984375,96.0595703125,97.8662109375,99.4287109375,97.9150390625,97.3779296875,97.0361328125,97.6708984375,96.7431640625,95.9130859375,94.4970703125,93.6181640625,92.2021484375,90.9814453125,89.2724609375,87.8564453125,86.3916015625,84.1943359375,82.5341796875,80.5322265625,78.4814453125,84.5361328125,90.9814453125,92.7392578125,93.6181640625,94.0576171875,94.3505859375,94.5947265625,95.1318359375,92.4951171875,90.4443359375,89.4677734375,88.6376953125,87.0751953125,84.3896484375,81.8994140625,80.7275390625,78.7744140625,75.6982421875,73.8427734375,73.5986328125,70.7177734375,69.0087890625,66.7626953125,65.4443359375,68.2275390625,75.8447265625,80.0439453125,79.7509765625,79.8974609375,81.8505859375,82.1923828125,81.7041015625,78.6767578125,76.6748046875,76.4794921875,75.8447265625,74.9169921875,73.2080078125,71.0107421875,68.3740234375,67.4951171875,65.3955078125,63.9794921875,62.1240234375,61.0009765625,59.3896484375,58.1689453125,57.9736328125,65.3955078125,72.6220703125,74.6728515625,74.4287109375,77.2607421875,80.0439453125,81.7041015625,80.5810546875,78.6279296875,79.2626953125,78.8720703125,79.0673828125,78.8232421875,77.6025390625,77.1142578125,74.6728515625,73.2080078125,72.9638671875,71.6943359375,70.6689453125,69.3017578125,68.1298828125,66.2255859375,66.5673828125,75.0634765625,82.2412109375,85.4150390625,85.8056640625,87.6611328125,90.5419921875,92.3486328125,91.6650390625,90.2001953125,90.0048828125,90.3955078125,89.7119140625,89.5166015625,88.7353515625,87.8076171875,86.4404296875,85.1708984375,84.0966796875,82.9736328125,81.8994140625,80.5322265625,79.3603515625,78.6279296875,77.4560546875,77.2119140625,81.9482421875,89.6630859375,95.4736328125,97.3779296875,98.6962890625,100.4541015625,101.4306640625,102.9443359375,101.0400390625,100.4052734375,100.0634765625,99.2333984375,97.3291015625,94.4970703125,92.2998046875,90.4443359375,88.6376953125,85.6591796875,83.4619140625,80.5322265625,77.9443359375,75.6005859375,73.4521484375,72.2802734375,69.1064453125,66.3720703125,69.1552734375,77.4072265625,81.2158203125,82.2900390625,82.3388671875,83.5107421875,84.4873046875,84.2919921875,81.0205078125,79.1162109375,78.9208984375,77.5537109375,76.0400390625,74.1357421875,71.4501953125,69.1552734375,66.2255859375,64.0771484375,62.7587890625,60.2685546875,59.1455078125,56.9482421875,55.5810546875,52.7001953125,52.6513671875,60.7568359375,68.1298828125,69.6923828125,70.3271484375,71.7431640625,74.5263671875,75.1611328125,74.1845703125,73.5986328125,71.9873046875,72.7197265625,72.1337890625,71.4990234375,70.8642578125,69.6923828125,68.9599609375,68.1298828125,67.2021484375,66.6650390625,65.1513671875,65.2490234375,64.2236328125,62.3193359375,62.2705078125,68.5693359375,76.1865234375,81.0205078125,81.1669921875,82.7294921875,84.1943359375,84.6337890625,85.3662109375,83.4130859375,82.4853515625,82.6318359375,81.9482421875,82.1435546875,80.7763671875,79.2138671875,78.7255859375,78.1884765625,76.7236328125,75.6494140625,74.6728515625,73.1591796875,71.8896484375,70.7666015625,69.5458984375,68.6669921875,70.5712890625,79.4580078125,86.6357421875,89.0283203125,89.5654296875,91.2255859375,92.9833984375,93.7646484375,92.1533203125,90.6396484375,88.8818359375,86.6845703125,85.4150390625,83.0712890625,80.3369140625,79.3603515625,76.8701171875,74.3798828125,72.5244140625,70.3271484375,68.5205078125,66.5673828125,64.2236328125,62.4658203125,60.6591796875,59.7802734375,66.9580078125,73.3056640625,75.6005859375,74.8681640625,75.8447265625,76.4306640625,77.2119140625,75.5029296875,72.8173828125,71.4013671875,70.1806640625,69.4482421875,67.0556640625,65.9814453125,64.2236328125,62.8076171875,60.3173828125,58.3154296875,56.0693359375,55.0439453125,53.2861328125,51.5283203125,49.7216796875,47.9150390625,54.2138671875,63.1494140625,66.0302734375,65.6396484375,67.7880859375,69.8876953125,70.6201171875,70.3759765625,69.3017578125,68.3740234375,68.5693359375,69.2529296875,68.1298828125,67.4462890625,67.5439453125,66.4208984375,65.9326171875,65.1513671875,64.1259765625,63.1005859375,62.3681640625,61.1962890625,60.5615234375,59.0966796875,67.9345703125,77.0654296875,80.1416015625,80.4345703125,83.1689453125,85.2197265625,86.0498046875,86.0498046875,84.5361328125,84.3896484375,84.5361328125,84.1943359375,83.4130859375,82.7294921875,81.9970703125,81.6552734375,81.4111328125,80.0927734375,79.4091796875,78.5302734375,77.0654296875,75.5029296875,74.1845703125,72.4267578125,77.3095703125,86.5869140625,90.8837890625,92.9833984375,93.7158203125,96.3037109375,97.4267578125,98.6474609375,97.9638671875,96.9384765625,96.8408203125,97.2802734375,96.8408203125,95.8154296875,94.9853515625,93.5693359375,92.8369140625,92.1533203125,90.5908203125,88.4912109375,86.6357421875,83.7060546875,81.0693359375,78.7255859375,75.7958984375,79.6533203125,86.9775390625,91.8603515625,92.2509765625,92.7880859375,93.9111328125,94.0087890625,94.7900390625,93.0322265625,90.2490234375,88.8330078125,88.0517578125,86.0986328125,84.5849609375,82.4853515625,80.4833984375,78.0419921875,75.2099609375,73.6474609375,71.7431640625,69.0087890625,66.6162109375,64.9072265625,63.0029296875,61.4892578125,68.0810546875,75.6005859375,77.3095703125,76.6259765625,78.3837890625,79.5556640625,79.6044921875,77.5537109375,74.7705078125,73.0615234375,72.7197265625,72.5732421875,71.5478515625,71.0107421875,70.1806640625,68.8134765625,67.7880859375,66.9091796875,65.6884765625,63.7353515625,62.5634765625,60.3662109375,59.1943359375,61.9775390625,71.9384765625,77.6513671875,79.1650390625,79.6044921875,81.6552734375,83.2177734375,83.9990234375,83.2666015625,81.8994140625,82.2900390625,82.0458984375,81.3623046875,80.5322265625,80.2880859375,79.4580078125,78.1396484375,77.3583984375,76.5283203125,75.2587890625,74.6728515625,73.6962890625,72.3779296875,72.2802734375,71.5966796875,79.7998046875,87.8564453125,91.8115234375,93.2275390625,94.3505859375,97.0361328125,98.1591796875,97.4755859375,96.4990234375,95.7666015625,96.0595703125,95.5712890625,95.4248046875,94.0576171875,93.0322265625,91.9580078125,90.7373046875,89.1748046875,88.0029296875,86.6357421875,85.3173828125,84.4873046875,83.2666015625,82.5341796875,82.2900390625,89.8583984375,96.7431640625,99.6728515625,99.6728515625,99.9658203125,100.4541015625,100.2587890625,100.0634765625,97.9638671875,96.8896484375,95.0341796875,94.5458984375,92.5439453125,91.0302734375,89.1259765625,87.2705078125,85.2685546875,82.9736328125,81.4599609375,79.6044921875,77.4072265625
