PPG_subj_03,27,M,N,Non-diabetic,138,34.353,Forehead,0.185546875,0.185546875,0.185546875,0.185546875,0.185546875,0.185546875,120.8740234375,-51.5380859375,-51.3427734375,-52.3193359375,-53.2470703125,-53.6865234375,-53.4423828125,-53.4912109375,-53.1005859375,-54.3701171875,-54.9072265625,-55.8837890625,-57.0556640625,-57.5927734375,-58.2763671875,-59.4482421875,-60.2783203125,-61.2548828125,-60.0830078125,-56.8115234375,-54.0771484375,-51.6357421875,-51.2939453125,-51.5869140625,-51.8310546875,-52.7099609375,-53.0029296875,-54.1259765625,-53.2958984375,-53.4423828125,-54.6630859375,-55.3466796875,-55.4931640625,-56.5185546875,-57.8369140625,-58.3740234375,-59.5947265625,-59.8388671875,-61.0595703125,-61.5966796875,-58.4228515625,-55.4931640625,-53.3935546875,-52.1728515625,-51.6845703125,-51.5869140625,-52.1728515625,-52.8076171875,-53.0517578125,-53.1982421875,-52.8076171875,-53.0517578125,-53.7841796875,-54.9560546875,-55.2490234375,-56.0791015625,-57.1533203125,-58.3740234375,-58.9111328125,-60.1318359375,-61.1572265625,-61.3037109375,-58.7158203125,-55.0537109375,-52.9541015625,-51.3427734375,-51.0009765625,-50.8544921875,-50.4638671875,-51.5380859375,-51.9287109375,-51.9287109375,-52.1240234375,-52.4169921875,-52.5634765625,-53.1982421875,-54.1259765625,-55.2490234375,-56.3720703125,-57.2998046875,-57.4951171875,-58.6669921875,-59.9853515625,-61.0595703125,-60.5712890625,-57.3486328125,-54.3701171875,-52.5146484375,-51.4404296875,-51.3916015625,-51.0498046875,-51.2939453125,-51.9775390625,-52.1728515625,-51.9287109375,-52.2216796875,-52.8076171875,-52.9541015625,-53.5888671875,-54.9072265625,-55.6396484375,-56.2255859375,-57.4462890625,-58.5205078125,-59.3994140625,-60.2783203125,-58.9599609375,-56.0791015625,-53.6376953125,-51.7822265625,-51.4892578125,-50.8544921875,-50.7568359375,-51.8310546875,-52.3681640625,-52.8564453125,-53.0517578125,-52.9052734375,-53.3447265625,-54.1259765625,-55.2490234375,-55.5419921875,-56.2255859375,-57.3486328125,-58.1787109375,-58.9111328125,-60.1806640625,-60.0830078125,-57.1533203125,-54.0771484375,-53.1005859375,-51.8310546875,-50.7568359375,-51.1962890625,-51.7822265625,-52.2216796875,-52.8564453125,-52.9541015625,-53.0517578125,-53.5888671875,-54.2236328125,-54.7119140625,-55.7861328125,-56.9580078125,-57.5927734375,-58.5205078125,-60.3759765625,-60.4736328125,-61.7919921875,-59.6923828125,-55.8837890625,-53.1494140625,-51.7822265625,-51.4404296875,-50.8056640625,-50.7568359375,-51.2939453125,-52.1728515625,-52.2216796875,-52.3681640625,-52.4169921875,-52.6123046875,-53.5888671875,-54.1748046875,-55.2001953125,-56.3232421875,-56.8115234375,-58.0810546875,-59.0576171875,-60.0830078125,-60.8154296875,-60.8154296875,-57.5927734375,-54.4677734375,-52.3193359375,-51.3916015625,-50.7568359375,-50.4150390625,-50.8544921875,-51.2939453125,-51.7822265625,-52.0751953125,-52.5634765625,-52.1728515625,-52.9052734375,-53.9306640625,-54.9560546875,-55.8349609375,-57.0556640625,-58.1787109375,-58.1298828125,-60.2294921875,-61.1083984375,-61.4501953125,-59.7412109375,-55.5908203125,-53.7841796875,-52.2216796875,-52.2216796875,-51.6845703125,-52.0751953125,-52.4658203125,-52.9052734375,-53.4912109375,-53.1494140625,-53.6865234375,-54.1259765625,-55.2001953125,-55.6396484375,-56.5673828125,-57.8369140625,-58.2275390625,-59.2041015625,-61.0107421875,-62.0361328125,-62.4755859375,-61.4501953125,-58.6669921875,-55.7373046875,-54.0283203125,-53.9306640625,-53.1494140625,-53.3447265625,-54.6630859375,-55.4931640625,-55.5419921875,-55.0048828125,-55.6396484375,-55.9326171875,-56.8115234375,-57.6416015625,-58.5205078125,-59.4482421875,-60.8154296875,-61.0595703125,-62.0849609375,-63.5498046875,-63.9404296875,-62.1337890625,-58.8134765625,-55.9814453125,-55.0048828125,-54.6142578125,-54.0283203125,-54.7607421875,-55.3955078125,-56.2744140625,-56.4208984375,-56.3720703125,-56.6650390625,-57.3486328125,-58.1787109375,-58.9111328125,-60.1806640625,-61.0595703125,-61.7919921875,-62.7197265625,-63.6962890625,-64.7705078125,-65.0634765625,-62.2802734375,-58.9599609375,-56.8115234375,-55.6884765625,-54.4677734375,-54.7119140625,-54.1259765625,-55.2490234375,-56.5185546875,-55.7373046875,-55.7373046875,-56.5185546875,-57.0556640625,-57.6904296875,-59.0087890625,-60.1318359375,-60.0830078125,-61.7919921875,-62.5244140625,-62.9638671875,-64.0869140625,-65.2099609375,-65.3564453125,-62.0849609375,-59.0087890625,-56.3720703125,-55.2490234375,-55.2001953125,-54.6142578125,-54.5166015625,-55.4931640625,-56.7626953125,-56.3232421875,-56.7138671875,-56.5185546875,-56.8603515625,-57.5927734375,-58.6181640625,-59.3994140625,-60.4736328125,-61.1083984375,-62.4755859375,-63.2568359375,-64.1357421875,-65.8447265625,-64.2333984375,-61.4013671875,-58.5693359375,-56.1279296875,-55.4931640625,-54.8583984375,-55.4931640625,-55.5908203125,-57.0556640625,-57.2509765625,-57.0068359375,-57.0068359375,-57.7880859375,-58.1787109375,-58.9111328125,-60.1806640625,-60.9619140625,-61.7919921875,-62.7197265625,-63.7451171875,-64.5751953125,-66.1865234375,-66.2841796875,-63.6962890625,-59.8388671875,-58.2763671875,-57.0068359375,-56.2744140625,-56.0791015625,-56.6162109375,-57.8857421875,-58.2763671875,-57.8857421875,-57.6904296875,-58.4716796875,-59.3505859375,-60.1806640625,-60.6689453125,-61.9384765625,-63.7939453125,-63.9404296875,-65.0634765625,-66.2841796875,-67.2607421875,-67.4072265625,-65.1123046875,-61.2060546875,-59.3505859375,-57.9345703125,-57.1044921875,-57.1044921875,-57.2998046875,-57.7880859375,-58.6181640625,-58.8134765625,-58.5693359375,-59.1552734375,-59.9365234375,-60.8642578125,-61.5966796875,-62.5732421875,-63.8916015625,-64.7705078125,-65.3564453125,-66.5283203125,-68.4326171875,-69.0185546875,-67.3095703125,-63.3544921875,-60.6689453125,-59.2529296875,-58.0322265625,-58.2763671875,-57.8369140625,-58.2763671875,-59.4970703125,-59.6923828125,-59.8876953125,-59.8876953125,-60.7666015625,-61.3525390625,-62.1826171875,-63.3056640625,-64.4287109375,-65.6005859375,-66.5283203125,-67.0654296875,-68.4814453125,-69.7509765625,-70.1904296875,-70.2880859375,-67.2607421875,-63.6474609375,-61.0107421875,-60.4248046875,-60.0830078125,-60.2294921875,-60.0830078125,-61.4013671875,-62.0849609375,-61.6943359375,-61.4990234375,-62.2314453125,-62.2802734375,-63.5009765625,-64.6240234375,-65.8447265625,-66.0400390625,-67.6025390625,-68.2373046875,-69.7998046875,-70.4345703125,-71.2158203125,-69.7021484375,-65.6494140625,-63.6474609375,-62.1826171875,-62.1826171875,-62.3291015625,-62.3779296875,-63.2080078125,-64.0380859375,-64.0380859375,-63.4521484375,-63.6474609375,-64.5751953125,-65.5029296875,-66.3818359375,-66.8701171875,-68.1884765625,-68.3837890625,-69.5068359375,-70.9716796875,-71.1669921875,-71.4599609375,-69.0673828125,-65.6494140625,-63.6962890625,-62.9638671875,-62.3779296875,-62.3291015625,-63.7451171875,-64.3798828125,-64.3798828125,-64.8681640625,-64.5751953125,-65.0146484375,-65.6005859375,-66.7724609375,-67.5537109375,-68.4814453125,-69.9462890625,-70.4345703125,-71.5576171875,-72.5830078125,-73.3642578125,-71.1181640625,-67.8466796875,-64.7705078125,-63.2568359375,-62.2314453125,-61.8896484375,-62.0849609375,-62.2802734375,-63.6474609375,-63.3056640625,-63.4033203125,-63.8916015625,-63.8916015625,-64.5751953125,-65.5517578125,-66.1865234375,-67.2119140625,-68.6279296875,-68.9208984375,-70.1904296875,-71.1669921875,-71.8994140625,-70.7275390625,-67.3095703125,-64.1845703125,-61.7431640625,-60.7666015625,-59.8876953125,-59.9365234375,-59.9853515625,-60.9130859375,-61.4990234375,-60.7177734375,-61.0107421875,-61.3037109375,-62.1337890625,-63.5498046875,-63.8427734375,-65.2099609375,-65.4541015625,-66.8212890625,-67.9931640625,-68.6767578125,-69.7998046875,-70.5322265625,-70.4833984375,-67.2607421875,-62.7197265625,-61.2060546875,-59.8876953125,-59.3017578125,-59.2041015625,-59.2529296875,-60.5712890625,-61.0595703125,-60.8642578125,-60.5224609375,-61.2548828125,-61.2548828125,-62.5732421875,-63.2080078125,-64.4287109375,-65.3564453125,-65.9423828125,-67.1630859375,-68.0908203125,-69.9462890625,-69.6533203125,-69.8974609375,-66.4306640625,-62.7197265625,-61.2060546875,-60.6689453125,-59.8876953125,-60.1806640625,-61.0595703125,-61.2548828125,-61.7919921875,-61.4501953125,-61.4990234375,-61.3525390625,-62.8662109375,-63.0126953125,-64.1845703125,-65.0634765625,-65.6982421875,-66.6259765625,-67.7001953125,-68.1884765625,-69.7998046875,-70.0927734375,-67.5048828125,-64.3798828125,-61.1572265625,-60.7177734375,-59.7900390625,-59.8388671875,-60.3759765625,-61.0107421875,-61.1572265625,-61.5478515625,-60.7666015625,-61.6943359375,-62.0361328125,-63.3056640625,-63.9892578125,-65.4541015625,-66.0400390625,-66.2841796875,-68.1884765625,-69.1650390625,-69.5556640625,-69.7998046875,-66.6748046875,-62.8173828125,-61.0107421875,-59.5947265625,-58.9111328125,-58.9599609375,-59.1064453125,-60.3271484375,-60.3271484375,-60.4736328125,-61.1572265625,-61.2548828125,-61.4501953125,-62.2802734375,-63.6962890625,-64.8681640625,-65.3564453125,-65.9912109375,-67.6513671875,-68.2373046875,-69.4580078125,-70.4833984375,-71.2646484375,-69.8486328125,-65.3076171875,-62.2802734375,-60.4248046875,-59.6923828125,-59.0576171875,-58.9111328125,-59.3017578125,-59.7900390625,-60.4248046875,-60.1806640625,-60.1318359375,-60.8642578125,-61.4013671875,-62.4755859375,-63.2568359375,-64.2822265625,-64.9658203125,-65.9423828125,-67.3583984375,-68.4326171875,-69.0185546875,-70.4345703125,-69.2626953125,-66.0400390625,-62.6708984375,-60.7666015625,-60.1806640625,-59.4482421875,-58.9599609375,-59.4970703125,-61.2548828125,-61.4501953125,-60.9130859375,-61.3525390625,-61.4501953125,-61.5966796875,-63.4033203125,-64.4775390625,-65.4052734375,-66.5283203125,-67.0654296875,-68.0908203125,-69.1162109375,-70.3369140625,-70.9716796875,-72.0947265625,-72.9736328125,-69.3115234375,-65.6494140625,-63.9404296875,-62.9638671875,-62.5732421875,-62.4267578125,-62.6708984375,-63.4033203125,-64.6240234375,-64.0869140625,-64.2333984375,-64.0380859375,-65.2099609375,-65.6005859375,-66.8212890625,-67.8466796875,-68.7255859375,-69.4091796875,-70.5810546875,-71.4599609375,-72.5341796875,-73.6083984375,-74.1943359375,-71.8994140625,-67.7978515625,-65.3564453125,-64.3310546875,-64.2822265625,-63.6474609375,-64.3310546875,-65.4541015625,-65.6005859375,-65.6494140625,-65.3564453125,-65.2587890625,-65.8935546875,-66.7236328125,-67.8466796875,-68.5791015625,-69.2138671875,-70.6787109375,-71.4111328125,-72.3388671875,-73.2177734375,-74.4384765625,-73.7548828125,-70.9228515625,-67.4072265625,-64.8681640625,-64.3798828125,-63.9404296875,-63.5498046875,-64.0380859375,-64.7216796875,-64.9658203125,-64.9169921875,-65.3564453125,-65.2587890625,-66.2353515625,-66.9189453125,-67.4072265625,-68.5791015625,-69.2138671875,-70.3369140625,-71.6064453125,-72.4853515625,-73.8525390625,-74.6826171875,-75.4150390625,-72.3876953125,-68.8232421875,-65.9912109375,-64.2822265625,-63.8916015625,-63.3056640625,-63.5009765625,-64.1357421875,-64.5263671875,-65.1123046875,-64.8193359375,-64.8681640625,-66.0888671875,-66.5283203125,-67.2119140625,-68.3349609375,-69.3115234375,-70.2392578125,-70.9716796875,-72.2412109375,-72.7294921875,-74.0966796875,-75.7080078125,-76.3916015625,-72.9248046875,-68.5791015625,-66.1865234375,-64.9169921875,-64.3310546875,-64.0380859375,-64.3310546875,-64.9658203125,-65.9912109375,-65.9912109375,-66.1865234375,-66.0400390625,-66.6259765625,-66.9189453125,-68.2373046875,-69.4091796875,-69.9951171875,-70.7763671875,-71.9482421875,-72.1435546875,-73.7548828125,-74.5849609375,-75.4638671875,-73.9990234375,-69.4580078125,-67.2119140625,-65.9912109375,-65.3564453125,-65.1123046875,-66.0888671875,-66.6748046875,-66.9677734375,-67.6025390625,-67.1630859375,-67.2607421875,-67.8955078125,-68.7255859375,-69.7509765625,-70.7763671875,-71.6064453125,-72.0458984375,-73.2666015625,-74.4384765625,-75.5615234375,-76.6357421875,-76.7822265625,-74.4873046875,-70.0439453125,-68.0419921875,-66.8212890625,-66.4794921875,-66.9677734375,-67.0654296875,-67.8466796875,-68.1884765625,-68.3349609375,-68.8232421875,-68.9208984375,-69.4091796875,-70.6298828125,-71.3134765625,-72.4365234375,-72.8759765625,-74.1455078125,-74.5849609375,-76.0986328125,-76.8310546875,-77.5634765625,-76.8798828125,-73.0712890625,-69.2626953125,-67.8955078125,-66.5283203125,-66.9677734375,-66.3330078125,-67.4072265625,-67.9443359375,-68.1396484375,-68.3349609375,-68.3837890625,-67.9931640625,-69.4091796875,-69.9462890625,-71.2646484375,-71.9482421875,-73.2666015625,-73.9990234375,-74.7802734375,-75.6103515625,-77.1240234375,-77.6123046875,-76.0009765625,-71.6064453125,-68.5791015625,-67.2119140625,-66.0888671875,-66.0400390625,-66.3330078125,-67.1630859375,-67.5537109375,-68.1884765625,-67.8955078125,-68.4814453125,-69.2138671875,-69.1162109375,-70.7763671875,-71.1669921875,-71.6552734375,-72.8759765625,-73.5107421875,-74.7802734375,-75.7568359375,-76.4404296875,-77.2216796875,-73.6572265625,-69.5556640625,-68.0419921875,-67.1630859375,-66.9677734375,-66.9189453125,-67.7001953125,-68.3837890625,-68.1396484375,-68.9697265625,-68.3349609375,-68.7744140625,-69.3603515625,-70.0927734375,-71.1669921875,-71.6064453125,-72.8271484375,-73.4619140625,-74.9755859375,-75.6103515625,-76.4892578125,-76.6845703125,-73.3642578125,-69.7021484375,-67.6025390625,-66.8212890625,-66.1865234375,-65.9912109375,-66.6259765625,-68.4326171875,-67.6025390625,-67.8466796875,-67.9443359375,-68.3837890625,-68.7744140625,-70.1416015625,-70.2880859375,-71.3134765625,-72.2900390625,-72.8271484375,-73.9501953125,-74.7802734375,-75.3662109375,-74.3896484375,-70.4833984375,-67.2607421875,-65.6982421875,-65.3076171875,-64.5263671875,-64.3798828125,-64.8193359375,-65.7958984375,-66.1376953125,-65.6005859375,-66.1865234375,-65.9912109375,-67.0166015625,-67.2119140625,-68.5302734375,-69.3115234375,-70.1416015625,-71.0693359375,-72.6806640625,-73.3154296875,-74.1943359375,-74.1455078125,-70.2880859375,-66.4306640625,-64.2333984375,-63.3544921875,-63.1591796875,-62.2314453125,-62.4755859375,-63.0126953125,-64.0380859375,-64.2333984375,-63.8916015625,-64.0380859375,-65.3076171875,-65.9423828125,-66.4306640625,-67.0166015625,-69.0185546875,-69.3115234375,-70.6787109375,-70.7275390625,-72.4853515625,-73.3154296875,-72.3388671875,-68.2861328125,-65.1611328125,-63.4521484375,-63.5009765625,-62.9638671875,-62.9638671875,-63.6474609375,-64.5751953125,-64.3310546875,-64.0869140625,-63.7451171875,-64.4775390625,-64.9658203125,-65.9423828125,-66.5771484375,-67.9443359375,-69.0673828125,-69.6044921875,-70.6787109375,-71.9482421875,-72.3876953125,-72.8271484375,-69.4580078125,-65.7958984375,-63.7451171875,-63.0126953125,-63.0615234375,-62.4755859375,-63.5986328125,-64.0380859375,-64.6728515625,-64.5751953125,-64.7216796875,-64.8193359375,-65.4541015625,-65.6982421875,-67.2119140625,-67.9931640625,-69.0185546875,-69.8486328125,-70.4833984375,-71.9482421875,-72.2412109375,-71.0693359375,-67.5048828125,-64.4775390625,-62.9638671875,-62.0361328125,-61.4990234375,-61.8408203125,-62.9150390625,-63.4521484375,-63.4521484375,-63.0615234375,-63.3544921875,-63.6962890625,-64.2333984375,-64.5751953125,-65.6494140625,-66.5771484375,-67.4560546875,-68.4814453125,-69.5068359375,-70.2880859375,-70.6787109375,-67.4560546875,-63.9404296875,-61.6943359375,-60.3759765625,-59.2529296875,-59.5947265625,-60.0341796875,-60.2783203125,-61.0107421875,-61.1083984375,-61.1572265625,-60.7666015625,-61.8896484375,-62.0361328125,-63.0126953125,-64.0869140625,-64.9169921875,-65.3076171875,-66.0400390625,-67.7490234375,-68.9208984375,-68.4814453125,-65.7958984375,-62.0361328125,-60.1806640625,-58.7646484375,-59.0087890625,-58.2275390625,-58.3740234375,-59.5458984375,-59.6923828125,-59.4482421875,-59.3505859375,-59.8388671875,-60.2294921875,-60.7666015625,-61.8408203125,-62.6220703125,-63.5986328125,-64.7705078125,-65.5517578125,-67.1630859375,-67.7001953125,-68.3837890625,-65.8935546875,-61.9873046875,-59.8876953125,-58.4716796875,-58.0322265625,-58.2763671875,-58.1298828125,-59.3505859375,-60.3271484375,-59.4482421875,-59.4482421875,-60.7177734375,-60.6201171875,-61.3525390625,-62.4267578125,-62.8173828125,-64.1357421875,-65.2099609375,-65.6005859375,-66.7724609375,-67.6513671875,-68.2373046875,-65.5029296875,-61.8896484375,-59.4482421875,-58.9111328125,-58.4228515625,-58.1298828125,-58.5205078125,-59.8876953125,-59.7412109375,-59.3994140625,-59.5458984375,-59.9853515625,-60.3271484375,-61.3525390625,-62.4755859375,-63.0126953125,-64.1845703125,-64.8681640625,-65.9912109375,-67.3095703125,-68.1396484375,-67.3583984375,-64.3310546875,-61.0107421875,-59.0576171875,-58.3740234375,-57.3486328125,-57.3486328125,-57.4951171875,-58.7646484375,-58.7158203125,-58.4716796875,-58.9599609375,-59.3505859375,-59.6435546875,-60.5712890625,-60.9619140625,-62.5732421875,-63.9404296875,-64.3798828125,-65.1611328125,-66.2841796875,-67.1630859375,-68.4814453125,-66.5283203125,-63.3544921875,-59.9365234375,-58.3251953125,-57.2021484375,-56.7138671875,-56.4208984375,-57.7392578125,-58.0322265625,-58.7158203125,-58.1787109375,-59.2041015625,-58.6669921875,-59.8876953125,-61.4990234375,-61.9873046875,-63.4033203125,-64.3310546875,-65.2587890625,-65.8935546875,-67.5537109375,-68.6767578125,-69.4091796875,-67.3583984375,-63.6962890625,-61.2060546875,-59.9365234375,-59.5458984375,-59.1064453125,-58.8623046875,-60.4248046875,-60.9130859375,-60.7666015625,-60.7666015625,-60.8642578125,-61.5966796875,-61.9873046875,-63.0126953125,-64.4287109375,-65.3076171875,-66.0888671875,-66.9677734375,-67.8466796875,-69.7509765625,-70.1904296875,-69.5068359375,-65.8447265625,-63.4521484375,-62.3779296875,-61.3525390625,-61.0107421875,-61.5478515625,-62.2314453125,-62.6708984375,-62.3779296875,-62.4755859375,-62.2802734375,-63.5009765625,-63.4521484375,-64.5751953125,-65.8935546875,-66.9189453125,-67.8955078125,-68.9208984375,-70.0927734375,-71.0205078125,-71.0205078125,-68.9208984375,-65.6494140625,-63.6474609375,-62.2314453125,-60.4736328125,-60.8642578125,-60.6689453125,-62.0361328125,-62.3291015625,-62.7685546875,-62.4267578125,-62.8173828125,-62.9638671875,-64.4287109375,-64.9169921875,-66.3330078125,-67.0166015625,-67.8955078125,-69.1162109375,-70.3857421875,-71.4599609375,-71.8994140625,-68.9208984375,-64.9169921875,-62.6708984375,-61.5966796875,-61.4501953125,-60.6689453125,-61.2060546875,-61.3525390625,-61.7919921875,-62.5244140625,-61.9384765625,-62.2802734375,-63.3056640625,-64.3798828125,-65.0146484375,-66.5771484375,-67.6513671875,-68.3349609375,-69.3603515625,-70.4345703125,-71.9482421875,-72.8759765625,-73.3642578125,-71.6064453125,-67.7978515625,-64.4775390625,-63.4033203125,-63.4033203125,-62.3291015625,-62.4267578125,-63.3056640625,-64.2822265625,-64.1845703125,-64.0380859375,-64.4287109375,-65.4052734375,-65.9912109375,-66.9677734375,-68.2373046875,-69.2138671875,-69.7021484375,-71.3623046875,-72.0458984375,-73.4130859375,-74.4384765625,-74.2919921875,-72.8271484375,-69.0673828125,-66.1865234375,-65.9912109375,-65.0146484375,-65.0634765625,-65.8447265625,-66.3818359375,-67.2607421875,-67.1630859375,-67.2119140625,-67.4072265625,-67.8955078125,-68.9697265625,-69.7021484375,-70.3369140625,-71.0205078125,-72.4365234375,-73.4130859375,-74.2919921875,-75.8544921875,-76.0498046875,-74.2431640625,-70.9228515625,-68.2861328125,-66.6259765625,-66.0400390625,-66.2841796875,-65.8935546875,-67.0654296875,-67.5048828125,-67.4560546875,-67.2607421875,-67.4072265625,-68.0908203125,-68.3837890625,-69.6044921875,-70.7763671875,-71.1181640625,-72.3876953125,-72.6806640625,-74.0966796875,-75.1708984375,-76.0986328125,-73.8037109375,-70.2880859375,-67.2607421875,-66.0888671875,-64.7705078125,-64.1357421875,-64.2333984375,-64.9169921875,-65.7470703125,-65.5029296875,-65.2587890625,-65.5517578125,-66.0400390625,-66.4794921875,-67.0654296875,-68.2861328125,-69.1650390625,-69.8486328125,-70.7275390625,-71.9970703125,-73.0712890625,-73.7060546875,-73.3642578125,-69.7509765625,-66.1376953125,-64.5751953125,-63.1103515625,-62.6708984375,-62.6708984375,-62.4267578125,-63.6962890625,-64.4287109375,-63.5986328125,-64.0869140625,-63.9404296875,-64.9169921875,-66.2841796875,-67.0654296875,-67.8466796875,-69.1162109375,-69.9951171875,-70.8740234375,-72.0458984375,-72.8759765625,-74.2919921875,-74.3896484375,-70.9228515625,-67.3583984375,-65.5517578125,-64.2822265625,-64.1357421875,-63.4033203125,-63.8916015625,-64.8193359375,-65.4541015625,-65.0634765625,-65.4052734375,-65.2099609375,-65.9912109375,-67.3095703125,-68.5791015625,-69.3115234375,-69.9951171875,-70.8740234375,-71.8994140625,-72.6318359375,-74.2431640625,-74.4384765625,-71.9970703125,-68.4326171875,-66.3330078125,-65.2587890625,-64.6240234375,-64.6728515625,-65.3564453125,-66.0888671875,-66.5771484375,-66.5283203125,-66.0400390625,-66.4306640625,-67.3583984375,-67.9443359375,-69.3115234375,-70.6298828125,-70.7275390625,-71.8017578125,-72.5830078125,-73.7060546875,-74.5849609375,-75.1708984375,-72.2900390625,-68.4814453125,-66.4306640625,-65.1123046875,-64.6728515625,-64.3798828125,-64.4287109375,-65.2099609375,-66.1865234375,-66.0400390625,-65.8447265625,-65.9912109375,-66.7236328125,-67.4072265625,-68.3349609375,-68.9697265625,-70.0927734375,-71.0205078125,-71.8017578125,-73.0712890625,-74.1943359375,-74.9267578125,-73.4130859375,-69.6533203125,-66.8212890625,-65.3076171875,-64.1845703125,-63.4521484375,-63.4033203125,-63.8427734375,-64.8193359375,-65.0634765625,-65.0146484375,-65.4052734375,-65.6005859375,-66.8212890625,-67.4560546875,-68.6767578125,-69.7509765625,-70.4345703125,-71.3623046875,-72.5341796875,-73.2177734375,-74.4873046875,-75.4638671875,-76.4892578125,-72.3388671875,-69.1162109375,-67.4072265625,-66.1376953125,-65.6494140625,-64.7705078125,-64.9169921875,-66.2353515625,-66.6259765625,-66.4306640625,-66.4306640625,-66.8701171875,-67.5537109375,-68.2373046875,-69.2626953125,-70.2880859375,-71.6064453125,-72.6318359375,-73.0712890625,-73.9013671875,-74.8779296875,-76.7822265625,-75.8056640625,-74.0478515625,-70.1416015625,-68.4814453125,-67.2119140625,-66.1865234375,-66.4794921875,-67.1630859375,-67.8466796875,-68.2861328125,-68.0419921875,-67.7978515625,-68.5302734375,-68.8232421875,-69.8486328125,-70.9716796875,-71.7529296875,-73.0224609375,-73.5595703125,-74.2431640625,-75.9033203125,-77.2216796875,-77.7099609375,-76.0498046875,-72.9736328125,-69.9462890625,-68.1396484375,-68.5302734375,-67.4560546875,-67.4560546875,-68.4814453125,-69.0185546875,-69.2138671875,-68.7744140625,-69.3603515625,-69.9462890625,-70.6787109375,-71.3134765625,-72.0947265625,-73.2177734375,-73.9013671875,-75.0244140625,-75.9033203125,-77.3193359375,-78.2470703125,-77.6123046875,-73.9501953125,-70.3369140625,-68.8232421875,-68.3349609375,-67.6513671875,-67.1142578125,-67.4560546875,-68.8232421875,-68.8720703125,-68.8232421875,-69.1650390625,-68.9697265625,-70.0439453125,-70.7275390625,-71.8994140625,-72.5830078125,-74.5361328125,-74.5361328125,-76.0009765625,-77.0751953125,-78.3935546875,-78.3935546875,-78.0517578125,-74.3408203125,-70.7763671875,-69.4580078125,-68.5302734375,-68.5302734375,-67.9931640625,-68.2861328125,-69.7998046875,-69.7509765625,-69.4580078125,-69.8486328125,-70.7275390625,-70.7275390625,-71.8994140625,-72.8759765625,-73.8037109375,-74.3408203125,-75.6591796875,-76.8310546875,-77.5146484375,-78.8818359375,-79.1748046875,-76.7822265625,-73.1201171875,-70.6298828125,-69.7998046875,-69.1162109375,-69.2626953125,-69.2138671875,-70.8251953125,-71.5087890625,-71.2158203125,-71.3134765625,-71.5087890625,-71.8994140625,-72.4853515625,-73.2177734375,-74.4384765625,-75.1220703125,-75.8544921875,-76.9287109375,-78.2958984375,-78.8330078125,-78.5400390625,-75.4638671875,-72.0947265625,-70.3857421875,-69.5556640625,-69.0185546875,-68.7255859375,-69.1650390625,-70.2880859375,-69.7998046875,-69.8486328125,-70.3369140625,-70.1416015625,-70.7763671875,-71.7041015625,-72.8759765625,-73.9501953125,-74.7802734375,-75.1708984375,-76.0009765625,-77.1728515625,-77.7587890625,-76.6845703125,-72.9736328125,-70.3857421875,-68.7255859375,-67.3583984375,-67.6513671875,-66.8701171875,-67.5048828125,-68.3349609375,-68.0908203125,-68.0908203125,-68.4326171875,-68.7255859375,-69.1650390625,-70.5322265625,-71.0205078125,-71.5576171875,-72.8271484375,-73.7060546875,-74.7802734375,-75.7568359375,-76.2939453125,-77.2705078125,-74.8291015625,-71.1669921875,-68.7744140625,-67.4560546875,-66.3818359375,-66.2841796875,-65.7958984375,-66.7724609375,-67.7978515625,-67.6513671875,-67.7978515625,-67.7001953125,-68.5791015625,-69.4580078125,-70.1416015625,-71.3134765625,-72.1435546875,-73.4619140625,-74.3896484375,-75.2197265625,-76.2939453125,-77.0751953125,-77.8564453125,-76.8798828125,-72.7294921875,-70.2392578125,-69.0673828125,-68.4326171875,-67.9443359375,-68.0908203125,-68.9697265625,-69.1650390625,-68.9697265625,-68.8232421875,-69.3115234375,-69.4091796875,-70.2392578125,-71.6064453125,-72.3388671875,-73.1201171875,-73.9990234375,-75.0244140625,-76.0009765625,-77.2216796875,-77.7099609375,-76.6357421875,-73.3642578125,-70.5322265625,-69.5556640625,-68.6279296875,-68.1884765625,-68.7744140625,-69.5556640625,-69.9462890625,-70.3369140625,-70.7275390625,-70.2880859375,-70.8740234375,-71.5087890625,-72.3388671875,-73.7548828125,-74.6826171875,-75.5615234375,-76.5869140625,-78.0029296875,-79.0283203125,-78.8330078125,-77.5146484375,-74.0966796875,-71.4111328125,-69.9462890625,-68.6767578125,-68.3349609375,-68.0908203125,-69.5068359375,-69.9951171875,-70.4833984375,-70.2880859375,-70.0927734375,-71.1669921875,-71.6552734375,-72.7783203125,-73.7060546875,-74.7314453125,-75.5615234375,-77.0263671875,-77.6611328125,-78.8330078125,-79.4677734375,-77.5634765625,-74.0966796875,-71.2646484375,-69.8974609375,-68.9697265625,-67.9443359375,-68.0908203125,-68.2861328125,-69.0673828125,-69.4091796875,-69.0673828125,-69.6044921875,-70.0439453125,-71.0693359375,-71.4111328125,-72.3388671875,-73.9501953125,-74.2919921875,-75.5126953125,-76.4404296875,-77.3681640625,-78.8330078125,-78.5400390625,-75.5615234375,-71.5087890625,-69.9462890625,-68.7744140625,-67.9443359375,-67.7490234375,-68.2861328125,-68.7255859375,-69.0185546875,-69.1650390625,-69.2138671875,-69.5556640625,-70.6787109375,-70.8251953125,-72.2900390625,-73.3154296875,-74.0478515625,-75.0244140625,-75.9033203125,-77.2705078125,-78.5400390625,-78.7841796875,-76.3427734375,-73.1201171875,-70.7275390625,-69.6533203125,-68.2373046875,-68.2861328125,-68.1396484375,-69.5556640625,-69.9462890625,-70.2880859375,-69.9462890625,-70.7763671875,-70.6787109375,-72.1435546875,-72.8759765625,-73.7060546875,-74.4873046875,-75.0732421875,-76.0986328125,-77.5634765625,-78.5400390625,-78.1982421875,-74.7802734375,-71.7041015625,-69.9462890625,-69.4580078125,-68.5791015625,-68.8720703125,-69.7021484375,-70.7275390625,-70.1904296875,-70.0439453125,-70.1904296875,-70.8740234375,-71.4111328125,-72.8271484375,-73.6572265625,-74.4873046875,-75.3662109375,-76.3916015625,-77.0751953125,-78.5400390625,-78.4423828125,-76.0009765625,-73.1689453125,-70.4345703125,-68.9697265625,-68.8720703125,-68.0419921875,-68.8232421875,-68.9208984375,-69.7998046875,-69.6044921875,-69.9462890625,-70.5322265625,-70.8740234375,-71.7041015625,-71.5087890625,-73.7060546875,-74.4873046875,-74.7802734375,-76.0986328125,-77.1728515625,-78.4423828125,-77.3681640625,-74.1943359375,-71.2646484375,-68.8720703125,-68.2373046875,-67.4560546875,-67.0166015625,-67.3095703125,-68.3837890625,-68.8232421875,-68.8232421875,-68.7255859375,-69.1650390625,-70.1416015625,-70.4345703125,-71.3134765625,-72.3876953125,-73.6083984375,-74.3408203125,-75.8056640625,-76.5380859375,-77.7587890625,-77.1728515625,-73.5107421875,-70.6298828125,-68.4814453125,-67.7490234375,-66.6748046875,-66.5283203125,-67.3095703125,-68.3349609375,-68.8232421875,-68.2373046875,-68.7744140625,-69.5068359375,-69.7509765625,-71.1669921875,-71.9482421875,-72.3876953125,-74.1943359375,-75.0732421875,-76.0009765625,-77.1240234375,-78.4423828125,-78.1494140625,-75.8056640625,-72.3876953125,-70.6298828125,-69.0185546875,-68.5791015625,-68.5302734375,-69.2138671875,-70.2880859375,-70.8740234375,-71.0693359375,-70.9228515625,-71.1181640625,-71.7041015625,-72.2900390625,-73.9501953125,-74.7802734375,-75.2685546875,-76.1474609375,-77.5146484375,-78.6865234375,-79.5166015625,-78.6865234375,-75.4638671875,-72.0947265625,-71.1181640625,-69.5556640625,-69.7509765625,-69.7509765625,-70.6787109375,-70.9228515625,-71.8017578125,-71.4111328125,-71.1181640625,-72.0458984375,-72.9248046875,-73.8037109375,-74.7802734375,-75.8544921875,-76.3427734375,-77.7099609375,-78.7353515625,-79.4189453125,-80.4931640625,-78.1005859375,-74.6826171875,-72.3388671875,-71.2158203125,-70.7275390625,-70.3369140625,-69.9462890625,-70.6298828125,-71.8994140625,-72.1923828125,-71.7529296875,-72.2900390625,-72.4853515625,-73.4619140625,-74.7314453125,-75.2685546875,-76.6357421875,-77.3193359375,-78.2958984375,-79.1259765625,-80.5419921875,-81.9091796875,-80.3955078125,-76.7333984375,-73.7548828125,-71.9970703125,-71.2158203125,-70.7763671875,-70.5810546875,-71.0693359375,-71.9970703125,-72.3388671875,-72.0458984375,-72.1435546875,-73.1689453125,-73.3642578125,-74.3896484375,-75.6103515625,-76.9775390625,-77.9052734375,-78.8818359375,-79.8583984375,-81.4208984375,-82.5439453125,-83.2275390625,-81.3232421875,-77.6611328125,-74.7802734375,-73.6083984375,-72.8759765625,-72.8759765625,-72.1923828125,-73.5107421875,-73.9501953125,-74.1943359375,-74.6337890625,-73.9501953125,-74.8779296875,-75.6591796875,-76.6357421875,-77.5146484375,-78.3447265625,-79.2724609375,-80.1513671875,-81.7626953125,-82.4951171875,-84.1064453125,-84.0087890625,-81.3232421875,-77.9541015625,-75.7568359375,-75.0244140625,-74.2431640625,-74.3408203125,-74.7802734375,-76.1962890625,-76.6845703125,-76.0986328125,-76.2939453125,-76.4892578125,-77.8076171875,-78.7353515625,-79.4189453125,-80.4931640625,-81.2255859375,-82.4462890625,-82.8369140625,-84.0087890625,-84.9853515625,-84.9365234375,-81.3720703125,-78.6376953125,-76.3916015625,-75.2197265625,-75.2197265625,-74.7802734375,-75.7568359375,-76.8798828125,-77.6611328125,-76.8310546875,-77.3193359375,-77.2216796875,-78.4423828125,-79.4189453125,-80.4931640625,-80.8837890625,-82.2998046875,-82.4462890625,-83.9111328125,-84.7412109375,-85.4248046875,-83.9111328125,-80.0537109375,-77.4658203125,-76.0498046875,-74.9755859375,-74.8291015625,-75.0244140625,-75.8056640625,-76.5380859375,-76.4404296875,-77.1240234375,-76.3916015625,-77.0751953125,-78.0029296875,-78.7841796875,-79.4677734375,-80.5419921875,-81.5185546875,-81.7626953125,-83.4228515625,-84.6435546875,-85.1318359375,-83.9599609375,-80.2490234375,-76.7822265625,-74.9267578125,-74.1943359375,-74.3408203125,-74.0478515625,-74.8291015625,-75.6103515625,-75.7568359375,-76.0009765625,-76.2939453125,-76.5380859375,-77.3193359375,-77.7587890625,-78.7353515625,-79.7119140625,-80.1513671875,-81.3720703125,-82.9345703125,-83.1787109375,-84.6923828125,-83.8134765625,-80.1025390625,-77.2705078125,-75.1220703125,-74.1943359375,-74.2431640625,-74.2431640625,-74.9755859375,-75.4638671875,-75.7080078125,-75.6103515625,-75.4638671875,-75.9033203125,-76.7333984375,-76.9775390625,-78.4423828125,-79.3212890625,-80.3466796875,-80.9326171875,-82.8369140625,-83.0322265625,-84.3017578125,-82.5439453125,-78.4912109375,-76.3427734375,-74.3896484375,-73.7548828125,-73.5107421875,-73.7060546875,-75.0244140625,-75.9033203125,-75.1708984375,-75.4150390625,-75.4638671875,-75.9521484375,-76.7333984375,-76.9287109375,-78.5888671875,-79.5166015625,-80.1513671875,-81.6162109375,-81.9580078125,-83.3740234375,-83.3740234375,-81.1279296875,-77.4169921875,-74.9755859375,-73.6083984375,-73.0712890625,-72.9736328125,-73.5107421875,-74.2431640625,-74.9267578125,-75.1220703125,-74.6826171875,-75.0732421875,-75.8544921875,-76.4404296875,-77.2216796875,-78.0517578125,-78.9794921875,-80.0537109375,-80.8349609375,-81.7626953125,-83.0322265625,-83.1298828125,-79.8583984375,-76.2451171875,-73.9990234375,-72.8759765625,-72.9736328125,-72.2900390625,-72.6318359375,-73.7548828125,-73.9990234375,-73.2666015625,-73.9501953125,-74.4873046875,-75.0732421875,-75.4150390625,-76.8798828125,-78.0517578125,-78.7841796875,-79.4189453125,-80.4931640625,-81.5185546875,-82.4951171875,-83.6181640625,-81.8603515625,-78.1494140625,-75.2685546875,-73.7548828125,-72.8759765625,-72.8271484375,-73.2177734375,-73.2177734375,-74.3896484375,-74.6337890625,-74.5361328125,-74.6826171875,-75.2197265625,-75.4150390625,-77.1728515625,-77.8076171875,-78.8330078125,-79.6142578125,-80.9326171875,-81.3720703125,-82.0556640625,-83.3251953125,-84.4482421875,-82.6904296875,-78.8330078125,-76.3916015625,-75.1708984375,-74.1943359375,-74.6337890625,-74.9755859375,-75.3662109375,-76.2939453125,-76.2939453125,-76.6357421875,-76.2939453125,-77.1240234375,-77.9541015625,-78.8330078125,-79.0771484375,-80.2490234375,-80.9814453125,-81.8603515625,-82.6904296875,-84.0087890625,-84.6923828125,-81.7138671875,-78.3447265625,-76.4404296875,-75.0244140625,-74.6337890625,-75.3173828125,-75.4638671875,-76.8798828125,-76.5869140625,-76.8310546875,-76.3427734375,-76.7822265625,-77.3681640625,-78.1982421875,-79.5166015625,-79.9560546875,-80.8349609375,-81.6650390625,-82.7392578125,-84.0087890625,-84.3505859375,-84.0576171875,-80.2490234375,-76.6357421875,-75.2197265625,-74.2919921875,-73.3642578125,-73.8037109375,-74.3896484375,-74.4873046875,-75.2197265625,-74.7802734375,-74.4384765625,-75.3173828125,-75.9521484375,-76.5380859375,-77.7587890625,-78.3935546875,-78.8330078125,-80.0048828125,-81.3232421875,-81.5185546875,-83.2763671875,-83.0810546875,-79.2724609375,-76.0986328125,-73.3154296875,-71.8017578125,-71.5576171875,-71.6552734375,-71.2158203125,-72.2412109375,-72.6318359375,-72.1923828125,-72.7294921875,-72.4365234375,-73.6083984375,-73.9501953125,-75.0732421875,-76.0498046875,-77.2705078125,-77.9052734375,-78.8818359375,-80.0537109375,-80.7861328125,-81.5185546875,-79.2724609375,-75.3173828125,-72.7783203125,-70.6298828125,-70.4833984375,-70.2880859375,-70.3857421875,-71.1669921875,-71.5087890625,-71.7529296875,-71.6064453125,-71.9970703125,-72.5341796875,-73.1201171875,-74.0966796875,-74.7802734375,-75.4638671875,-76.9287109375,-77.4169921875,-78.5400390625,-79.2724609375,-80.4443359375,-78.7841796875,-74.7314453125,-72.0458984375,-70.8251953125,-70.4833984375,-70.0927734375,-70.8251953125,-71.2158203125,-72.7294921875,-72.1435546875,-71.9970703125,-72.0947265625,-73.0224609375,-73.2177734375,-74.8779296875,-75.5126953125,-75.9033203125,-77.1240234375,-77.4658203125,-78.5400390625,-79.8583984375,-78.0029296875,-73.8525390625,-71.5087890625,-69.9462890625,-69.3115234375,-69.6533203125,-69.4580078125,-70.0439453125,-70.8740234375,-70.6298828125,-70.6298828125,-71.0693359375,-71.6064453125,-72.4365234375,-73.6083984375,-74.2431640625,-75.2197265625,-75.6591796875,-77.1728515625,-77.9541015625,-78.9306640625,-77.7587890625,-74.0966796875,-70.8740234375,-69.7021484375,-69.2138671875,-67.9931640625,-67.5048828125,-68.3837890625,-69.5556640625,-69.7021484375,-69.7021484375,-69.7509765625,-69.9951171875,-71.4111328125,-72.1435546875,-72.6806640625,-73.3154296875,-74.1943359375,-75.6591796875,-77.2216796875,-77.7099609375,-78.1982421875,-75.0244140625,-71.1669921875,-68.8720703125,-67.8466796875,-67.2607421875,-67.7978515625,-67.5537109375,-69.6044921875,-69.9462890625,-69.8486328125,-69.8486328125,-70.5810546875,-70.6298828125,-71.4111328125,-73.0712890625,-73.9013671875,-74.9267578125,-75.7568359375,-76.1962890625,-78.0029296875,-78.4423828125,-79.6630859375,-79.1259765625,-74.6337890625,-71.6064453125,-70.4345703125,-69.1650390625,-69.4091796875,-69.2138671875,-70.7763671875,-71.1669921875,-71.4599609375,-70.2880859375,-70.9228515625,-71.4111328125,-72.7294921875,-73.3154296875,-74.2431640625,-75.3662109375,-75.7080078125,-76.9775390625,-77.9052734375,-79.2236328125,-79.8583984375,-78.6376953125,-75.5126953125,-72.3388671875,-70.6787109375,-69.8486328125,-69.6044921875,-69.6044921875,-70.1904296875,-71.4111328125,-70.9228515625,-71.2646484375,-71.5087890625,-71.3134765625,-72.6318359375,-73.7548828125,-74.6826171875,-74.9267578125,-75.5615234375,-76.7822265625,-77.4169921875,-78.5888671875,-79.1748046875,-76.1962890625,-72.9248046875,-70.2880859375,-69.1162109375,-68.6767578125,-68.2373046875,-67.7978515625,-68.9208984375,-69.1650390625,-69.4091796875,-69.7509765625,-69.1650390625,-70.7275390625,-71.2646484375,-72.1435546875,-72.7783203125,-74.4873046875,-74.8291015625,-75.4150390625,-76.7333984375,-77.4169921875,-78.5400390625,-77.0263671875,-72.5341796875,-70.3369140625,-68.0419921875,-67.2607421875,-67.7001953125,-66.7236328125,-67.7490234375,-68.9697265625,-68.6279296875,-68.4326171875,-69.0673828125,-69.5068359375,-70.1904296875,-71.0205078125,-72.1435546875,-72.8759765625,-73.5107421875,-75.1220703125,-76.1474609375,-76.7822265625,-77.4658203125,-77.1728515625,-73.8037109375,-70.6298828125,-68.5791015625,-68.2861328125,-67.5537109375,-67.5048828125,-68.3837890625,-69.1650390625,-69.3603515625,-69.7021484375,-69.2138671875,-69.8486328125,-71.0693359375,-71.5087890625,-73.0224609375,-73.5595703125,-74.3408203125,-75.4150390625,-76.0986328125,-77.6123046875,-78.8818359375,-77.3681640625,-73.7548828125,-71.2646484375,-68.9697265625,-68.5302734375,-68.8720703125,-68.2373046875,-69.4580078125,-70.2880859375,-70.0439453125,-70.3857421875,-70.2880859375,-70.9228515625,-72.0947265625,-73.0712890625,-73.8037109375,-74.9755859375,-75.7568359375,-76.5380859375,-77.9052734375,-78.1005859375,-79.0283203125,-76.7333984375,-73.4130859375,-70.2880859375,-69.0185546875,-68.9208984375,-68.5791015625,-68.3349609375,-69.2138671875,-70.1416015625,-69.8486328125,-70.0927734375,-70.5322265625,-70.3369140625,-71.5087890625,-72.1435546875,-72.8271484375,-74.0966796875,-75.6103515625,-75.9521484375,-77.2705078125,-78.4912109375,-79.7607421875,-79.0771484375,-76.1474609375,-71.9482421875,-70.1904296875,-68.6279296875,-68.0908203125,-67.7001953125,-68.2373046875,-68.7744140625,-69.7021484375,-69.3115234375,-69.5068359375,-70.0927734375,-70.8740234375,-71.4111328125,-72.4853515625,-73.6083984375,-74.7802734375,-75.4150390625,-76.6845703125,-77.5146484375,-79.0283203125,-79.7607421875,-80.6884765625,-77.9052734375,-73.8037109375,-71.6552734375,-69.7998046875,-69.1162109375,-69.1650390625,-68.8232421875,-70.3857421875,-70.9716796875,-70.8251953125,-71.5087890625,-71.7041015625,-71.8505859375,-72.8759765625,-73.3154296875,-74.6826171875,-75.9521484375,-76.6357421875,-77.3681640625,-77.8564453125,-79.1748046875,-80.6396484375,-81.4208984375,-79.6142578125,-76.1474609375,-73.1201171875,-71.8505859375,-71.2158203125,-71.1669921875,-71.4599609375,-72.4365234375,-73.8037109375,-73.5595703125,-73.3154296875,-73.9990234375,-74.0478515625,-74.8291015625,-75.8544921875,-77.3193359375,-77.3193359375,-78.3935546875,-79.5654296875,-80.7373046875,-81.5185546875,-82.4462890625,-80.4931640625,-76.8798828125,-73.6572265625,-73.5107421875,-72.0458984375,-72.3388671875,-72.3876953125,-73.0224609375,-74.7314453125,-73.9990234375,-73.6083984375,-73.7548828125,-75.3662109375,-75.6591796875,-76.7333984375,-77.5146484375,-78.7353515625,-79.0283203125,-79.7607421875,-80.9814453125,-82.0068359375,-82.5439453125,-81.3720703125,-77.8564453125,-74.7314453125,-73.0712890625,-72.3388671875,-71.4111328125,-71.7529296875,-71.8505859375,-73.1689453125,-73.1689453125,-72.8271484375,-72.9248046875,-73.3154296875,-74.1943359375,-75.3662109375,-75.8544921875,-77.2705078125,-78.1005859375,-78.9794921875,-79.7119140625,-80.4931640625,-81.7626953125,-82.5927734375,-83.8623046875,-83.3740234375,-79.2236328125,-76.0498046875,-73.7060546875,-72.5341796875,-71.7529296875,-71.8017578125,-71.5576171875,-73.2177734375,-72.7294921875,-72.4853515625,-73.0224609375,-72.7783203125,-73.8037109375,-75.2685546875,-75.8544921875,-76.5380859375,-77.9541015625,-79.0283203125,-79.3212890625,-80.7373046875,-81.2744140625,-82.2021484375,-82.9833984375,-84.0576171875,-83.5693359375,-79.4677734375,-75.9033203125,-73.9990234375,-73.4130859375,-72.7783203125,-72.5341796875,-73.6083984375,-74.4384765625,-74.6337890625,-74.0966796875,-74.8779296875,-74.3408203125,-75.0732421875,-75.4150390625,-76.1474609375,-77.5146484375,-78.2470703125,-78.8330078125,-79.8095703125,-80.7861328125,-81.6162109375,-82.6904296875,-81.4208984375,-77.3193359375,-74.5849609375,-72.9736328125,-72.3876953125,-71.9970703125,-72.5830078125,-73.6083984375,-74.4873046875,-74.2431640625,-74.1455078125,-74.0966796875,-74.6826171875,-75.5126953125,-76.2451171875,-77.0263671875,-78.2958984375,-78.5400390625,-79.4677734375,-80.2001953125,-81.2744140625,-82.6416015625,-81.4697265625,-78.4423828125,-75.3662109375,-73.0712890625,-72.0947265625,-71.4111328125,-71.7041015625,-71.5576171875,-72.7783203125,-73.3154296875,-73.0224609375,-72.9736328125,-73.3154296875,-73.8525390625,-74.7802734375,-76.0009765625,-76.2939453125,-77.8076171875,-78.3935546875,-79.3212890625,-80.3466796875,-81.0302734375,-82.3974609375,-80.4443359375,-76.6845703125,-74.1455078125,-72.5341796875,-71.2158203125,-70.5322265625,-70.6787109375,-71.1181640625,-72.4853515625,-72.0458984375,-72.4853515625,-72.2900390625,-73.1201171875,-73.9013671875,-74.4873046875,-75.7568359375,-76.6357421875,-77.6611328125,-78.6865234375,-79.3701171875,-80.5419921875,-81.0302734375,-82.2998046875,-79.7119140625,-76.3427734375,-73.5595703125,-72.5830078125,-71.9482421875,-71.5576171875,-71.1669921875,-72.7294921875,-73.6572265625,-73.6572265625,-73.7060546875,-73.7548828125,-74.0478515625,-74.9755859375,-76.0009765625,-77.0751953125,-78.1494140625,-78.4912109375,-79.9072265625,-80.5908203125,-81.4697265625,-82.7392578125,-83.0810546875,-79.9560546875,-76.7822265625,-74.6826171875,-74.0966796875,-73.2177734375,-73.8525390625,-74.3896484375,-75.5615234375,-75.7080078125,-75.6103515625,-75.5126953125,-76.0009765625,-75.9521484375,-77.7587890625,-77.7099609375,-79.0283203125,-79.9072265625,-80.5419921875,-81.3232421875,-82.3486328125,-83.3251953125,-83.6669921875,-80.3466796875,-77.0263671875,-75.0244140625,-74.3896484375,-73.4130859375,-73.6572265625,-73.8525390625,-75.1708984375,-74.9755859375,-75.0244140625,-74.9755859375,-75.2685546875,-75.7568359375,-76.7333984375,-78.3447265625,-78.8330078125,-79.9560546875,-80.6396484375,-80.9326171875,-82.4951171875,-83.3740234375,-83.8134765625,-83.6669921875,-80.6396484375,-77.0751953125,-75.1220703125,-73.9013671875,-73.3642578125,-72.5830078125,-72.5341796875,-73.7548828125,-74.2431640625,-74.6826171875,-74.9267578125,-74.4873046875,-75.1220703125,-75.8544921875,-77.3193359375,-77.9541015625,-78.5888671875,-79.5166015625,-80.5419921875,-81.6650390625,-82.5927734375,-83.2763671875,-83.4228515625,-80.1025390625,-77.0263671875,-75.2197265625,-73.4130859375,-73.4130859375,-72.9736328125,-73.6572265625,-74.4873046875,-74.6826171875,-74.5849609375,-74.6826171875,-75.1708984375,-75.3662109375,-76.2451171875,-77.3681640625,-77.7099609375,-78.8330078125,-79.8583984375,-80.7373046875,-81.7138671875,-82.4951171875,-83.9599609375,-84.3505859375,-81.8603515625,-78.3935546875,-75.7080078125,-74.7314453125,-73.9013671875,-73.9013671875,-74.7314453125,-75.3173828125,-75.8056640625,-75.7568359375,-75.5126953125,-75.7568359375,-76.5380859375,-77.4658203125,-78.0029296875,-79.0283203125,-79.9072265625,-81.0791015625,-81.8115234375,-82.5439453125,-83.6181640625,-84.8876953125,-83.9599609375,-80.6396484375,-77.6123046875,-75.5126953125,-75.1220703125,-74.1455078125,-74.2431640625,-74.7314453125,-76.0498046875,-76.2451171875,-76.5380859375,-76.2451171875,-75.9521484375,-77.9052734375,-77.9541015625,-79.5654296875,-79.8095703125,-81.0791015625,-81.5185546875,-82.8369140625,-83.9111328125,-84.8876953125,-85.4248046875,-86.0595703125,-83.3740234375,-80.1513671875,-77.1728515625,-74.9267578125,-75.0732421875,-74.6337890625,-75.0244140625,-75.8544921875,-76.4404296875,-76.7333984375,-76.8798828125,-76.7822265625,-77.8564453125,-78.3935546875,-79.4677734375,-80.0048828125,-80.9326171875,-81.6162109375,-83.5693359375,-84.6923828125,-84.8876953125,-86.4990234375,-87.3291015625,-88.8916015625,-88.5009765625,-84.7412109375,-80.6884765625,-78.8330078125,-77.7587890625,-77.5634765625,-77.1728515625,-77.3681640625,-78.5400390625,-78.9306640625,-79.0771484375,-79.0283203125,-79.3701171875,-80.2978515625,-80.8837890625,-81.8603515625,-82.5439453125,-83.7158203125,-84.7900390625,-85.5224609375,-86.4501953125,-87.6220703125,-88.2568359375,-89.3798828125,-87.3291015625,-83.5205078125,-80.7861328125,-79.9560546875,-79.2236328125,-79.4189453125,-80.2490234375,-81.4208984375,-81.8603515625,-81.6650390625,-81.8115234375,-82.2509765625,-82.6904296875,-83.3740234375,-84.1552734375,-85.4248046875,-85.7666015625,-86.8896484375,-87.5732421875,-87.8662109375,-89.1357421875,-89.7705078125,-88.0615234375,-84.5458984375,-81.9580078125,-80.5908203125,-79.7607421875,-80.1513671875,-80.1025390625,-81.0791015625,-82.0556640625,-82.0556640625,-81.9580078125,-82.0556640625,-82.9833984375,-83.7158203125,-84.5458984375,-85.2294921875,-86.2060546875,-87.4267578125,-87.9638671875,-88.8916015625,-89.4775390625,-90.0146484375,-87.3291015625,-83.2275390625,-80.7861328125,-79.6630859375,-78.9306640625,-78.8330078125,-79.5166015625,-79.6630859375,-80.4443359375,-80.3466796875,-79.8095703125,-80.2978515625,-80.6396484375,-81.3232421875,-81.5673828125,-82.9833984375,-83.4716796875,-84.6923828125,-85.3271484375,-86.1083984375,-87.1337890625,-87.4755859375,-84.9853515625,-80.5908203125,-78.7841796875,-77.0751953125,-77.0751953125,-76.5380859375,-76.7822265625,-77.4169921875,-77.1240234375,-78.0029296875,-77.3193359375,-77.8564453125,-78.0517578125,-78.9306640625,-79.8583984375,-80.3955078125,-81.7138671875,-82.2998046875,-82.9833984375,-83.9599609375,-84.9853515625,-85.5712890625,-82.7392578125,-78.7353515625,-77.0263671875,-75.7568359375,-75.9033203125,-75.0732421875,-75.1220703125,-76.5380859375,-76.3427734375,-76.4404296875,-76.6845703125,-77.1240234375,-77.3193359375,-78.4912109375,-79.0771484375,-79.6630859375,-80.8837890625,-81.2744140625,-82.2509765625,-82.6904296875,-83.9111328125,-82.4462890625,-79.2236328125,-76.6845703125,-74.9755859375,-74.5849609375,-74.5849609375,-74.6337890625,-75.6103515625,-76.4892578125,-76.4892578125,-75.9033203125,-76.5869140625,-76.7333984375,-77.3681640625,-78.6865234375,-79.6630859375,-80.4931640625,-81.3232421875,-81.9580078125,-82.3974609375,-83.7646484375,-82.9833984375,-79.7119140625,-77.0751953125,-75.2197265625,-73.9501953125,-73.6572265625,-72.9736328125,-73.3154296875,-74.1943359375,-74.9267578125,-74.4873046875,-74.2919921875,-74.8291015625,-75.3662109375,-76.3916015625,-77.0751953125,-78.5888671875,-78.8330078125,-79.9560546875,-80.7373046875,-81.6162109375,-82.5439453125,-83.3251953125,-81.3720703125,-78.2958984375,-75.2685546875,-73.8037109375,-72.5341796875,-72.1435546875,-71.8505859375,-71.9482421875,-73.4619140625,-72.9248046875,-73.2177734375,-73.2666015625,-73.6572265625,-74.6337890625,-75.7568359375,-75.9033203125,-77.0751953125,-78.7353515625,-78.7841796875,-79.9072265625,-80.9814453125,-81.8603515625,-83.1298828125,-83.6669921875,-82.0068359375,-78.1982421875,-75.5126953125,-73.7548828125,-73.5595703125,-72.9248046875,-72.6318359375,-73.2666015625,-74.6337890625,-74.6826171875,-75.0244140625,-74.6337890625,-74.6826171875,-75.8544921875,-76.7822265625,-77.3681640625,-78.5888671875,-79.1259765625,-80.3466796875,-81.1279296875,-82.1533203125,-83.4228515625,-84.0576171875,-85.0341796875,-82.8369140625,-79.1748046875,-76.9287109375,-75.7568359375,-75.8544921875,-75.1220703125,-74.9267578125,-76.4404296875,-76.8798828125,-77.1728515625,-76.8310546875,-77.2705078125,-78.1982421875,-78.6865234375,-79.7119140625,-80.0537109375,-81.1279296875,-81.8603515625,-82.6416015625,-83.7158203125,-85.1806640625,-85.5224609375,-86.4501953125,-85.6689453125,-82.2509765625,-79.5654296875,-77.5146484375,-76.6357421875,-76.4892578125,-76.4892578125,-77.4169921875,-78.4912109375,-77.7587890625,-78.2470703125,-78.3935546875,-78.1982421875,-79.3212890625,-80.8837890625,-81.6650390625,-82.2021484375,-83.3251953125,-83.7646484375,-84.9365234375,-86.1572265625,-86.7919921875,-88.3544921875,-89.0380859375,-87.0849609375,-83.2763671875,-80.1025390625,-77.8076171875,-77.4658203125,-77.0751953125,-76.6845703125,-77.2216796875,-78.1005859375,-78.2470703125,-78.4423828125,-78.3935546875,-78.5888671875,-79.8095703125,-80.2001953125,-81.1767578125,-82.3486328125,-83.2275390625,-84.1064453125,-84.3994140625,-86.0107421875,-86.9384765625,-88.1591796875,-89.2822265625,-89.7216796875,-87.7685546875,-83.4716796875,-81.6162109375,-79.7119140625,-79.0283203125,-78.6376953125,-78.5888671875,-79.7119140625,-80.0048828125,-80.5419921875,-80.1513671875,-80.3955078125,-80.7373046875,-81.1767578125,-82.2998046875,-83.1298828125,-84.4970703125,-84.8876953125,-85.7177734375,-86.7431640625,-87.9150390625,-88.7939453125,-89.9658203125,-91.0400390625,-91.1376953125,-87.9638671875,-84.2041015625,-82.3486328125,-81.0302734375,-81.6650390625,-81.3720703125,-81.9580078125,-83.3251953125,-83.7646484375,-82.8857421875,-83.3251953125,-83.1787109375,-83.9599609375,-84.6435546875,-86.4990234375,-86.3525390625,-87.7685546875,-88.5009765625,-89.1357421875,-90.3076171875,-91.3818359375,-91.8212890625,-92.2119140625,-88.5986328125,-85.0830078125,-82.9833984375,-81.8603515625,-81.4697265625,-81.3720703125,-81.8603515625,-82.6904296875,-83.8134765625,-84.2041015625,-83.7158203125,-83.8623046875,-84.8388671875,-85.7666015625,-86.4501953125,-87.6708984375,-88.3056640625,-89.0869140625,-90.2587890625,-91.0400390625,-91.8701171875,-93.0419921875,-93.2373046875,-91.6259765625,-87.2802734375,-84.2529296875,-82.6416015625,-82.0068359375,-81.4697265625,-81.5673828125,-82.0556640625,-82.7392578125,-83.1787109375,-82.6904296875,-82.8857421875,-82.9833984375,-84.1064453125,-84.8388671875,-85.6689453125,-86.6943359375,-87.7685546875,-88.4521484375,-89.4287109375,-90.1611328125,-91.0400390625,-91.9189453125,-93.0419921875,-94.1650390625,-91.2841796875,-86.7919921875,-83.6669921875,-82.3974609375,-81.7626953125,-81.5185546875,-81.9091796875,-82.4951171875,-83.1298828125,-83.4228515625,-82.9833984375,-83.7646484375,-83.3740234375,-84.0576171875,-85.1806640625,-86.0107421875,-87.3779296875,-87.8662109375,-88.7939453125,-89.9658203125,-90.2099609375,-91.5283203125,-93.1884765625,-93.7744140625,-93.9208984375,-90.5517578125,-86.4501953125,-84.4482421875,-83.2275390625,-82.7392578125,-83.6669921875,-84.1552734375,-84.2529296875,-85.3759765625,-84.7412109375,-84.8876953125,-84.8388671875,-85.4248046875,-86.3525390625,-87.8173828125,-88.9404296875,-89.4775390625,-90.3076171875,-90.7958984375,-91.6259765625,-93.1884765625,-93.9697265625,-94.9951171875,-93.4326171875,-89.6728515625,-85.5712890625,-84.9365234375,-83.9111328125,-83.9111328125,-84.7412109375,-85.4248046875,-86.5478515625,-86.9873046875,-86.4501953125,-86.3525390625,-86.7919921875,-87.8173828125,-88.6474609375,-89.2333984375,-89.8681640625,-91.1376953125,-91.8701171875,-92.2607421875,-93.0908203125,-94.9462890625,-95.2880859375,-94.9462890625,-91.2841796875,-87.1826171875,-85.2294921875,-84.3017578125,-83.9111328125,-83.8134765625,-84.5458984375,-85.4248046875,-85.7666015625,-86.4013671875,-86.3037109375,-86.0107421875,-86.3525390625,-87.1826171875,-88.2080078125,-89.4775390625,-89.8193359375,-91.0400390625,-91.9189453125,-92.7001953125,-93.5302734375,-94.2626953125,-95.4833984375,-95.2392578125,-91.2353515625,-87.2802734375,-84.7900390625,-83.8134765625,-83.0322265625,-83.5693359375,-83.8134765625,-84.4970703125,-84.4970703125,-84.5947265625,-84.3505859375,-84.8876953125,-85.1318359375,-85.7666015625,-86.7919921875,-87.5732421875,-88.3056640625,-88.8427734375,-90.3076171875,-90.7470703125,-91.6259765625,-93.1396484375,-93.2373046875,-94.9951171875,-91.7236328125,-87.3291015625,-84.3994140625,-83.2763671875,-82.3486328125,-82.6416015625,-82.5927734375,-83.1787109375,-84.1064453125,-84.0576171875,-83.8623046875,-83.7158203125,-84.4482421875,-85.1806640625,-84.9853515625,-86.8408203125,-86.7431640625,-88.3056640625,-89.1357421875,-89.7705078125,-90.4052734375,-91.2353515625,-92.7001953125,-93.4326171875,-93.4814453125,-90.7958984375,-86.1572265625,-83.7158203125,-82.6904296875,-83.1298828125,-82.9833984375,-83.7646484375,-84.1552734375,-84.7412109375,-84.4482421875,-83.8134765625,-84.1064453125,-84.7900390625,-85.5712890625,-86.1572265625,-86.9873046875,-87.6220703125,-88.5009765625,-89.4775390625,-90.4541015625,-90.8447265625,-92.0654296875,-92.3095703125,-90.3076171875,-86.2060546875,-83.1787109375,-82.2509765625,-82.1044921875,-82.3486328125,-82.4462890625,-82.9833984375,-83.5205078125,-83.1298828125,-83.4716796875,-83.1298828125,-83.2763671875,-84.6923828125,-84.9365234375,-85.8154296875,-86.7919921875,-87.7685546875,-87.9638671875,-88.2080078125,-90.0146484375,-90.6494140625,-91.6259765625,-90.6494140625,-86.9873046875,-83.1787109375,-81.5673828125,-80.7373046875,-80.3466796875,-79.9560546875,-79.9560546875,-80.9814453125,-81.4697265625,-81.2255859375,-81.0302734375,-81.3720703125,-81.9580078125,-82.3486328125,-83.3740234375,-84.3505859375,-84.4970703125,-85.2294921875,-86.4501953125,-86.9873046875,-88.1103515625,-89.2822265625,-89.6240234375,-90.8935546875,-86.6943359375,-83.3251953125,-80.4443359375,-78.9306640625,-78.5888671875,-77.9541015625,-78.3935546875,-78.4912109375,-78.8818359375,-79.9072265625,-79.3212890625,-79.3212890625,-79.8095703125,-80.2978515625,-81.0302734375,-82.2021484375,-82.8857421875,-83.6181640625,-84.0087890625,-85.0830078125,-85.8642578125,-87.0849609375,-87.9150390625,-87.3779296875,-83.5205078125,-80.5419921875,-79.1748046875,-77.3193359375,-77.4169921875,-78.0517578125,-77.8564453125,-78.7841796875,-79.2236328125,-79.3701171875,-79.1748046875,-79.2236328125,-79.4189453125,-80.1513671875,-81.5185546875,-82.2998046875,-82.9833984375,-83.8134765625,-84.0087890625,-85.8642578125,-86.0595703125,-86.9873046875,-88.3056640625,-86.2548828125,-82.4462890625,-79.5166015625,-77.9541015625,-77.7099609375,-77.4658203125,-78.4912109375,-78.9306640625,-79.4677734375,-79.6142578125,-79.2724609375,-79.3701171875,-79.9072265625,-80.3955078125,-81.3232421875,-81.8603515625,-82.5439453125,-82.9833984375,-83.7158203125,-85.0341796875,-85.9619140625,-86.7431640625,-86.4990234375,-83.1298828125,-79.8095703125,-78.0029296875,-76.3916015625,-76.3427734375,-76.5380859375,-76.0009765625,-77.0751953125,-77.0263671875,-77.6123046875,-77.3681640625,-77.5146484375,-78.1494140625,-78.5400390625,-79.5166015625,-80.1025390625,-80.9814453125,-81.7626953125,-82.3974609375,-83.5205078125,-83.9599609375,-85.3759765625,-85.5712890625,-84.0087890625,-80.1513671875,-77.0263671875,-76.0009765625,-74.4384765625,-74.0478515625,-73.3154296875,-73.9990234375,-74.5361328125,-74.4873046875,-74.2919921875,-74.1455078125,-73.9990234375,-75.1708984375,-75.5126953125,-76.9775390625,-77.6611328125,-78.5400390625,-79.4189453125,-80.0048828125,-81.3232421875,-82.0068359375,-82.9833984375,-84.2529296875,-85.1806640625,-84.0576171875,-80.1513671875,-76.6845703125,-74.3896484375,-73.6572265625,-73.1689453125,-72.7783203125,-73.1201171875,-73.8037109375,-74.1943359375,-74.0478515625,-73.8525390625,-73.9990234375,-74.6337890625,-75.3173828125,-76.3427734375,-78.0029296875,-78.5888671875,-79.4189453125,-80.5419921875,-81.5673828125,-82.3974609375,-83.3251953125,-84.0087890625,-85.2783203125,-83.7158203125,-79.6142578125,-76.9287109375,-75.4150390625,-74.5361328125,-74.1455078125,-74.7314453125,-75.1708984375,-76.6845703125,-76.0009765625,-75.4150390625,-76.0498046875,-75.8544921875,-76.6845703125,-77.5634765625,-78.6865234375,-80.2490234375,-80.2490234375,-81.6650390625,-82.7392578125,-83.0322265625,-84.4970703125,-85.0830078125,-84.6923828125,-81.9580078125,-78.1982421875,-76.4404296875,-75.8056640625,-75.1220703125,-75.4638671875,-76.0009765625,-76.7333984375,-76.5380859375,-76.6845703125,-76.3427734375,-76.5380859375,-77.1240234375,-77.9541015625,-79.0283203125,-79.9560546875,-80.5908203125,-81.6650390625,-82.6904296875,-83.0322265625,-84.4970703125,-85.6689453125,-85.5224609375,-83.1298828125,-79.9560546875,-77.0263671875,-75.3173828125,-74.2431640625,-74.2919921875,-74.2919921875,-74.8291015625,-75.5126953125,-75.1708984375,-75.6103515625,-75.3662109375,-75.9033203125,-76.8798828125,-77.0751953125,-78.8330078125,-79.6142578125,-80.2490234375,-81.5185546875,-82.2998046875,-82.9833984375,-84.0576171875,-85.3271484375,-83.6181640625,-79.7607421875,-76.9775390625,-74.7314453125,-73.6083984375,-72.9248046875,-72.5830078125,-73.1201171875,-74.1455078125,-74.0966796875,-74.7314453125,-74.3896484375,-74.4384765625,-75.2685546875,-76.2939453125,-76.3916015625,-77.5146484375,-78.5400390625,-79.5654296875,-80.8349609375,-81.6650390625,-83.0322265625,-84.4482421875,-85.1318359375,-85.9619140625,-85.2294921875,-82.2998046875,-78.6865234375,-76.4404296875,-75.2197265625,-74.5849609375,-74.4384765625,-73.6083984375,-74.6826171875,-75.9033203125,-75.8056640625,-75.1708984375,-75.8544921875,-76.3427734375,-76.8798828125,-77.6611328125,-78.8330078125,-80.2001953125,-80.5419921875,-81.8115234375,-82.2998046875,-83.8134765625,-85.0830078125,-86.0595703125,-85.5712890625,-82.2998046875,-78.9306640625,-77.1240234375,-76.1474609375,-75.6103515625,-75.7568359375,-76.0986328125,-77.2216796875,-78.0517578125,-77.7587890625,-77.7099609375,-77.7099609375,-78.5400390625,-79.4189453125,-80.2978515625,-81.4697265625,-82.1533203125,-82.8369140625,-84.2529296875,-85.3759765625,-86.4013671875,-87.5732421875,-87.4755859375,-85.0830078125,-81.0302734375,-79.2236328125,-77.5146484375,-76.8798828125,-77.1240234375,-77.9052734375,-78.4912109375,-78.9794921875,-79.4189453125,-79.1748046875,-79.3701171875,-79.8583984375,-80.3466796875,-81.7626953125,-82.4462890625,-83.1787109375,-84.6923828125,-85.0341796875,-86.1083984375,-87.0849609375,-87.8662109375,-88.1591796875,-84.4482421875,-81.4208984375,-78.2958984375,-77.9052734375,-77.1240234375,-76.7822265625,-77.3681640625,-77.7587890625,-78.1005859375,-78.4912109375,-78.2470703125,-78.4423828125,-78.8330078125,-79.8583984375,-80.5908203125,-81.6650390625,-82.2998046875,-83.3251953125,-84.4482421875,-84.6923828125,-86.2060546875,-87.3779296875,-87.9150390625,-87.2314453125,-83.1787109375,-79.9072265625,-77.8076171875,-76.5380859375,-75.9521484375,-75.7568359375,-75.9033203125,-76.3916015625,-77.8076171875,-77.2216796875,-76.9287109375,-77.3193359375,-77.4169921875,-78.9794921875,-78.8818359375,-80.5419921875,-81.5185546875,-82.3974609375,-83.8134765625,-84.4970703125,-85.4248046875,-86.1572265625,-87.7197265625,-87.9150390625,-84.7412109375,-80.8349609375,-78.7353515625,-77.5146484375,-76.4892578125,-77.5146484375,-77.2216796875,-78.0029296875,-79.1259765625,-78.7841796875,-78.6865234375,-78.8818359375,-79.2236328125,-79.7119140625,-81.2744140625,-82.5439453125,-83.2275390625,-83.7646484375,-85.1318359375,-85.9619140625,-86.7431640625,-87.7685546875,-88.8916015625,-87.7685546875,-84.1552734375,-80.8349609375,-79.3212890625,-79.2724609375,-79.0283203125,-79.4189453125,-79.6630859375,-80.7861328125,-81.2255859375,-80.2978515625,-80.7861328125,-80.9326171875,-81.6650390625,-82.7392578125,-83.5693359375,-84.7900390625,-85.3759765625,-86.4501953125,-86.9873046875,-88.1103515625,-88.8427734375,-89.6728515625,-87.0849609375,-83.3251953125,-81.0791015625,-79.3701171875,-78.8330078125,-79.1748046875,-79.3701171875,-80.5419921875,-80.7861328125,-81.3232421875,-81.5673828125,-81.2744140625,-81.3232421875,-82.6904296875,-83.2275390625,-83.7646484375,-84.5947265625,-85.3271484375,-86.4990234375,-87.6220703125,-88.3056640625,-89.2333984375,-87.8662109375,-84.8876953125,-81.7138671875,-79.3701171875,-78.9306640625,-78.5888671875,-78.1005859375,-78.5888671875,-79.5166015625,-78.9306640625,-79.1748046875,-79.9072265625,-79.8583984375,-80.4443359375,-81.4208984375,-82.0068359375,-82.7392578125,-83.6181640625,-84.8876953125,-85.7666015625,-86.9384765625,-87.3779296875,-88.1591796875,-90.0634765625,-89.4775390625,-86.0107421875,-82.6416015625,-80.3955078125,-79.0771484375,-78.5888671875,-78.8818359375,-78.1982421875,-79.1748046875,-79.5166015625,-79.0283203125,-79.6142578125,-79.5654296875,-80.0537109375,-81.3232421875,-81.5185546875,-82.2021484375,-83.3740234375,-84.2529296875,-84.9853515625,-86.0107421875,-87.3291015625,-88.0126953125,-88.7451171875,-88.9892578125,-85.2783203125,-81.5185546875,-79.9560546875,-79.4189453125,-78.7353515625,-79.1259765625,-79.4189453125,-80.6884765625,-80.5908203125,-80.1513671875,-80.4931640625,-80.8349609375,-81.1767578125,-83.0322265625,-83.1787109375,-83.8623046875,-85.0830078125,-85.6689453125,-86.8896484375,-87.9150390625,-88.0615234375,-89.4287109375,-90.0634765625,-87.8173828125,-83.8623046875,-81.4697265625,-80.8837890625,-79.9560546875,-79.5166015625,-79.8095703125,-80.9814453125,-81.5185546875,-80.9814453125,-81.0302734375,-81.2255859375,-81.3720703125,-82.0556640625,-83.0322265625,-83.6669921875,-84.4482421875,-86.5478515625,-86.2548828125,-87.5732421875,-88.1591796875,-88.9892578125,-88.9892578125,-87.3291015625,-83.7646484375,-80.9326171875,-79.9560546875,-79.4677734375,-79.4677734375,-79.6142578125,-79.9072265625,-80.4931640625,-80.8349609375,-80.4931640625,-80.8349609375,-81.1279296875,-81.5185546875,-82.5439453125,-82.8369140625,-84.3017578125,-85.1318359375,-85.8642578125,-86.8408203125,-87.6220703125,-88.7451171875,-87.4267578125,-83.6181640625,-80.8349609375,-79.0283203125,-78.3447265625,-77.9052734375,-77.9052734375,-78.2958984375,-79.2724609375,-79.5166015625,-79.3701171875,-79.5166015625,-79.7607421875,-80.3955078125,-81.0302734375,-82.5439453125,-83.1787109375,-83.5205078125,-85.3271484375,-85.9130859375,-86.7919921875,-87.9638671875,-88.0615234375,-85.9619140625,-82.5439453125,-80.1025390625,-78.5400390625,-78.1005859375,-78.0517578125,-77.8564453125,-78.5400390625,-79.4189453125,-79.0771484375,-78.7841796875,-79.7119140625,-79.1259765625,-80.2490234375,-81.4208984375,-82.4462890625
PPG_subj_03,27,M,N,Non-diabetic,138,34.353,Earlobe,0.185546875,0.185546875,0.185546875,0.185546875,0.185546875,0.185546875,126.4501953125,18.6279296875,19.0673828125,18.7255859375,18.5791015625,18.5302734375,18.3349609375,17.8955078125,17.6513671875,17.4560546875,19.5068359375,22.8271484375,26.0009765625,26.3916015625,28.1005859375,29.4189453125,29.7607421875,27.9541015625,28.6376953125,29.6142578125,29.5166015625,29.2724609375,27.9541015625,27.3193359375,27.3193359375,27.3681640625,27.3681640625,26.5869140625,25.7080078125,25.8056640625,25.2685546875,26.9775390625,29.2236328125,32.3486328125,32.5439453125,33.1787109375,35.1806640625,35.6201171875,34.5947265625,33.9111328125,34.4970703125,34.4482421875,34.4970703125,33.6181640625,33.5205078125,33.5205078125,32.8857421875,32.3974609375,32.2021484375,31.3720703125,30.3466796875,30.0537109375,28.8330078125,30.4931640625,32.1533203125,34.4970703125,35.9130859375,36.4501953125,37.5732421875,37.7197265625,36.4013671875,35.8154296875,34.8388671875,35.3759765625,33.5693359375,31.8603515625,30.2001953125,28.5888671875,28.0517578125,26.7822265625,26.4404296875,25.3662109375,24.3896484375,22.9248046875,21.8994140625,21.1669921875,22.3388671875,24.8291015625,25.3662109375,26.2939453125,26.7333984375,27.1240234375,26.9287109375,25.9033203125,24.6826171875,24.7314453125,24.1943359375,22.9736328125,22.4365234375,22.0458984375,21.2158203125,20.0927734375,19.1162109375,18.3349609375,17.2119140625,16.1865234375,15.0146484375,15.3564453125,16.8701171875,18.7255859375,19.8974609375,20.5322265625,21.3623046875,21.5087890625,19.8974609375,18.6767578125,18.6279296875,19.7998046875,18.4814453125,17.7001953125,17.2607421875,18.0908203125,18.1396484375,16.9189453125,16.5283203125,16.2353515625,15.0146484375,14.9169921875,14.0869140625,16.5771484375,19.3603515625,21.3623046875,22.0458984375,23.2666015625,24.8779296875,24.0966796875,22.3876953125,22.7783203125,23.6572265625,23.4130859375,21.8505859375,20.8251953125,20.9228515625,20.7763671875,20.6298828125,20.3857421875,20.3857421875,19.6533203125,18.8232421875,19.0673828125,19.7998046875,21.8505859375,25.1220703125,26.0986328125,26.6357421875,27.6611328125,28.0517578125,27.5634765625,26.6845703125,27.8564453125,28.4912109375,27.6611328125,27.3681640625,26.6845703125,26.5380859375,26.0009765625,25.4150390625,24.5849609375,24.5849609375,24.2431640625,23.3642578125,23.0224609375,23.0712890625,25.0732421875,26.8310546875,27.5146484375,27.7587890625,28.6865234375,29.7119140625,29.8583984375,28.9306640625,28.3935546875,29.6630859375,29.5654296875,27.4658203125,28.1494140625,27.4658203125,27.2705078125,26.5869140625,25.8544921875,24.9755859375,23.9013671875,23.4130859375,22.6318359375,21.8505859375,24.1943359375,26.5380859375,27.5634765625,27.3681640625,28.2470703125,29.7607421875,29.5654296875,27.8564453125,28.2958984375,28.0517578125,27.5146484375,26.6357421875,26.1474609375,24.9755859375,24.6826171875,23.4619140625,23.5595703125,22.4365234375,21.4111328125,20.9228515625,20.2880859375,19.1650390625,20.9228515625,23.1689453125,24.7802734375,25.3662109375,26.8310546875,27.4169921875,28.1005859375,25.7568359375,26.0009765625,27.8076171875,28.1982421875,27.8564453125,28.0029296875,28.0517578125,28.1982421875,27.8076171875,27.4658203125,26.4404296875,26.5869140625,26.0009765625,25.6591796875,26.3427734375,28.9306640625,31.7138671875,33.0322265625,34.1064453125,35.9619140625,35.6689453125,35.8154296875,34.1552734375,34.6435546875,35.6689453125,34.6923828125,34.1064453125,33.3740234375,34.2529296875,33.4716796875,33.2275390625,33.0322265625,32.2509765625,32.1044921875,31.3720703125,30.2978515625,31.8115234375,34.0087890625,36.0595703125,36.6943359375,37.3291015625,38.9404296875,38.6962890625,37.9150390625,37.1826171875,37.7197265625,37.9150390625,36.8896484375,36.0107421875,35.2294921875,34.7412109375,35.0830078125,34.5458984375,34.1064453125,34.0087890625,33.3740234375,32.4462890625,31.6650390625,30.8837890625,32.5439453125,33.5693359375,34.6923828125,34.5947265625,35.6201171875,36.3037109375,35.9619140625,33.6181640625,32.4462890625,32.7392578125,31.8603515625,30.9814453125,29.9072265625,28.2470703125,27.1240234375,26.4404296875,24.9755859375,24.3408203125,22.8759765625,21.8017578125,20.5810546875,19.9951171875,19.4580078125,22.0458984375,23.6083984375,25.1220703125,25.6591796875,26.7333984375,27.7099609375,25.5615234375,23.7060546875,24.2431640625,23.9013671875,22.9248046875,21.5576171875,21.5087890625,20.4833984375,20.0927734375,19.1162109375,19.2626953125,19.7021484375,19.0185546875,19.0673828125,18.5791015625,17.7001953125,20.1904296875,22.3876953125,24.1943359375,25.1708984375,26.2451171875,27.0751953125,27.9541015625,27.1240234375,27.7587890625,28.1005859375,27.9541015625,27.1728515625,26.8798828125,26.7333984375,27.1728515625,25.4638671875,25.5615234375,25.5615234375,24.5361328125,24.2919921875,23.2177734375,23.6083984375,25.0244140625,27.2216796875,29.1259765625,29.3701171875,30.5419921875,31.3720703125,30.7861328125,29.9560546875,30.1513671875,31.0791015625,30.4443359375,29.8583984375,29.3212890625,29.9560546875,30.2001953125,29.5166015625,29.1259765625,28.8330078125,28.3447265625,28.3447265625,27.8564453125,27.1728515625,28.3935546875,29.9072265625,32.7392578125,33.3740234375,34.3505859375,35.6689453125,35.4736328125,35.1318359375,34.0087890625,34.7900390625,35.1806640625,34.1552734375,33.4228515625,33.2275390625,33.7158203125,32.6416015625,32.4951171875,31.1767578125,30.2001953125,29.3701171875,29.1748046875,27.8076171875,27.0263671875,28.0517578125,30.9326171875,33.3251953125,34.0576171875,34.7900390625,36.6455078125,36.8896484375,35.6201171875,34.7900390625,35.5712890625,35.5224609375,33.9599609375,33.1787109375,32.6904296875,31.9091796875,30.6396484375,30.2001953125,29.2236328125,28.4423828125,27.4658203125,26.6357421875,25.5615234375,24.4384765625,27.2705078125,29.2236328125,30.7373046875,31.3232421875,32.8369140625,33.5205078125,31.7626953125,30.7861328125,31.2255859375,31.0302734375,30.3466796875,29.8095703125,30.2978515625,30.1025390625,30.5908203125,30.5419921875,30.1513671875,30.1025390625,30.2490234375,28.7353515625,28.3935546875,29.9560546875,32.7880859375,35.6689453125,36.1083984375,38.1103515625,39.3310546875,39.1845703125,38.6474609375,38.2080078125,39.4775390625,39.4775390625,38.9404296875,37.6708984375,37.6708984375,37.7685546875,37.3291015625,36.5478515625,36.2060546875,36.4013671875,35.9130859375,35.2783203125,36.1572265625,38.4521484375,40.5029296875,42.7001953125,43.0419921875,44.8974609375,44.7509765625,44.4580078125,42.7490234375,43.2861328125,44.3115234375,43.1884765625,41.6748046875,40.9423828125,40.9423828125,41.1376953125,40.4541015625,40.2099609375,40.3076171875,40.1611328125,38.9892578125,38.6962890625,38.9892578125,40.2099609375,42.9931640625,44.5068359375,45.0439453125,46.4111328125,47.0458984375,46.3134765625,45.7275390625,45.2392578125,46.0693359375,45.4345703125,44.3603515625,43.8720703125,42.6025390625,42.2607421875,41.5283203125,40.2587890625,38.9892578125,38.2568359375,36.9873046875,36.3037109375,34.8876953125,34.2529296875,37.0849609375,38.9892578125,39.3798828125,39.5263671875,39.4775390625,40.4541015625,39.9658203125,38.1591796875,38.3056640625,37.5244140625,36.9384765625,35.9130859375,35.0341796875,34.2529296875,33.4228515625,32.1533203125,31.2744140625,30.1025390625,29.2724609375,28.2958984375,26.6845703125,25.6591796875,25.8056640625,27.9052734375,29.3212890625,30.5419921875,30.5908203125,31.3232421875,32.3486328125,30.2490234375,29.0283203125,29.3212890625,29.2724609375,28.8818359375,28.7353515625,26.1474609375,26.3427734375,25.6591796875,24.6337890625,24.1943359375,23.7548828125,23.9990234375,23.7060546875,23.0224609375,23.9990234375,26.0009765625,29.0283203125,30.1025390625,30.7373046875,31.8603515625,32.4462890625,31.1767578125,29.8095703125,30.6884765625,32.1044921875,31.7138671875,31.1279296875,30.6884765625,31.6162109375,30.2001953125,30.0537109375,29.9560546875,29.6142578125,29.9072265625,29.5654296875,29.5166015625,30.2490234375,32.3486328125,34.4482421875,34.5947265625,35.1806640625,36.1572265625,37.0849609375,36.5966796875,35.5224609375,35.9130859375,36.5478515625,35.6689453125,34.7412109375,34.2529296875,34.1064453125,33.7158203125,33.7158203125,32.5927734375,32.9345703125,33.3251953125,32.3974609375,31.4697265625,31.4208984375,31.5673828125,33.4228515625,36.5478515625,37.6220703125,38.6474609375,40.3564453125,40.7470703125,41.1865234375,40.3564453125,40.9423828125,41.4794921875,40.9912109375,40.2587890625,39.8681640625,39.5751953125,39.6728515625,38.5498046875,38.1591796875,37.8173828125,37.8173828125,36.8896484375,35.7666015625,34.8388671875,34.3994140625,36.8408203125,39.3798828125,39.5263671875,39.9658203125,40.4541015625,41.3330078125,40.9423828125,39.7705078125,39.0869140625,39.6728515625,38.4033203125,37.5732421875,36.8896484375,36.4013671875,35.1318359375,34.2529296875,33.2763671875,32.4951171875,31.6650390625,31.0791015625,30.1025390625,29.2724609375,27.6123046875,27.0263671875,28.1005859375,30.2490234375,32.0068359375,33.5693359375,34.3505859375,34.0576171875,33.1298828125,32.8369140625,33.2763671875,33.3251953125,33.0810546875,31.9580078125,32.0068359375,30.7861328125,31.0791015625,30.5419921875,29.1259765625,28.5888671875,28.3447265625,27.6611328125,26.4892578125,24.9755859375,24.4384765625,26.0986328125,28.9794921875,31.3232421875,31.8603515625,33.6181640625,35.0830078125,35.3759765625,34.1064453125,34.2529296875,36.0107421875,36.7919921875,35.9619140625,35.8154296875,36.1572265625,36.0595703125,35.5712890625,35.1318359375,34.4482421875,33.5693359375,33.6181640625,32.8857421875,32.3974609375,32.6904296875,35.2783203125,37.4755859375,38.4033203125,39.6728515625,41.2353515625,41.6748046875,40.3564453125,40.1123046875,40.6982421875,40.5029296875,40.2587890625,39.9169921875,38.9892578125,39.6240234375,39.4775390625,39.0380859375,38.0615234375,37.7197265625,37.0361328125,36.4501953125,36.0595703125,35.3271484375,35.6201171875,36.9873046875,39.3310546875,41.1865234375,41.9677734375,43.1884765625,42.4560546875,43.4326171875,42.4560546875,41.7724609375,42.9443359375,42.4072265625,41.0888671875,40.1611328125,39.7216796875,38.9892578125,39.1357421875,38.1103515625,37.4755859375,37.2314453125,35.6201171875,34.7900390625,33.0322265625,32.1533203125,32.0556640625,34.6923828125,36.6455078125,37.3779296875,37.9638671875,39.8193359375,40.6494140625,40.7470703125,39.2333984375,39.0869140625,39.4775390625,39.8681640625,37.8662109375,37.1826171875,36.4013671875,35.4736328125,34.2041015625,32.8857421875,32.0068359375,30.6884765625,29.4677734375,28.7353515625,28.2470703125,27.5146484375,29.6630859375,31.4208984375,32.2021484375,32.7880859375,33.7158203125,33.7646484375,32.9833984375,31.8115234375,31.8115234375,33.2763671875,31.9580078125,31.3232421875,30.6884765625,30.2001953125,29.4189453125,29.9072265625,29.6142578125,28.9794921875,28.2958984375,27.8564453125,28.0517578125,27.1240234375,29.1748046875,30.9814453125,34.0087890625,34.1552734375,35.6689453125,37.8173828125,37.6708984375,36.5966796875,37.2802734375,37.7685546875,37.5732421875,37.4267578125,36.8408203125,37.8173828125,38.3544921875,36.9384765625,36.5966796875,35.2294921875,35.1806640625,34.9365234375,34.1552734375,33.9599609375,34.3505859375,35.7177734375,38.7939453125,40.3076171875,40.7470703125,42.5537109375,42.7001953125,42.7978515625,41.8212890625,42.2607421875,41.9189453125,42.2607421875,41.4306640625,40.8447265625,41.0888671875,41.1865234375,41.1376953125,40.4052734375,40.0634765625,39.1357421875,37.5244140625,36.1083984375,34.8388671875,36.2060546875,38.2080078125,40.2587890625,40.1123046875,41.6259765625,42.5537109375,43.1396484375,41.1376953125,39.7216796875,39.7705078125,39.1845703125,38.7451171875,37.0849609375,36.7919921875,35.8642578125,35.0341796875,34.0576171875,33.7158203125,33.2763671875,31.1279296875,31.1767578125,29.5654296875,29.5654296875,31.3720703125,32.9345703125,34.9853515625,35.5224609375,35.7177734375,35.8154296875,34.8876953125,33.6669921875,34.3505859375,34.3994140625,34.0576171875,33.3740234375,32.6904296875,32.8369140625,32.2021484375,30.6884765625,29.7607421875,29.1259765625,28.4912109375,27.3681640625,26.7822265625,27.5634765625,30.2490234375,32.4951171875,33.3740234375,34.8876953125,36.0595703125,36.6943359375,35.8154296875,35.2783203125,37.5732421875,38.0126953125,36.7919921875,35.4248046875,36.0107421875,36.4501953125,36.4990234375,36.1572265625,36.0107421875,36.4501953125,36.7431640625,36.1572265625,35.9130859375,37.1826171875,39.7216796875,42.4072265625,42.8955078125,44.8974609375,45.0439453125,45.4345703125,44.3603515625,44.6533203125,44.8974609375,44.8974609375,43.8232421875,42.9931640625,42.8955078125,43.3349609375,43.1396484375,42.9443359375,41.6748046875,40.8447265625,39.7705078125,39.4287109375,39.1357421875,40.4541015625,42.8955078125,45.1416015625,46.0693359375,47.2412109375,48.5595703125,48.2666015625,47.7294921875,46.3134765625,47.3388671875,48.1201171875,46.7041015625,45.1904296875,45.3369140625,44.3115234375,43.5791015625,42.4072265625,40.8935546875,40.5029296875,38.9892578125,38.1103515625,36.4501953125,35.8154296875,37.2802734375,38.9892578125,39.7216796875,40.2587890625,40.7958984375,41.4794921875,40.8447265625,39.2333984375,39.4287109375,39.8681640625,39.5751953125,38.4033203125,38.5009765625,36.7431640625,36.0595703125,35.3271484375,34.5458984375,34.2529296875,31.9580078125,32.0068359375,31.1279296875,29.9560546875,31.3720703125,33.4716796875,34.6923828125,35.4248046875,36.2548828125,36.8896484375,36.6455078125,34.4482421875,35.2294921875,36.5966796875,36.0107421875,34.9365234375,34.3994140625,34.6435546875,35.3759765625,34.2041015625,34.0576171875,33.9599609375,34.0087890625,33.9599609375,33.8623046875,34.4970703125,35.6689453125,37.1337890625,38.7451171875,39.4287109375,40.9912109375,41.5771484375,41.4794921875,41.6259765625,42.9443359375,43.5302734375,44.3115234375,44.3115234375,44.4580078125,43.8232421875,43.7744140625,42.7490234375,42.4072265625,42.2119140625,41.6259765625,41.0400390625,41.3818359375,42.1630859375,45.2392578125,46.6064453125,47.4853515625,48.8525390625,49.2919921875,48.7548828125,47.9248046875,47.0947265625,48.8525390625,48.8037109375,48.0712890625,47.9248046875,47.5830078125,47.8759765625,47.6318359375,47.0458984375,46.2646484375,46.5087890625,46.1181640625,44.8974609375,44.2138671875,45.2392578125,47.9248046875,47.8759765625,47.6318359375,48.4619140625,48.6083984375,47.9736328125,46.7529296875,46.2158203125,45.5322265625,45.3369140625,44.3603515625,42.8955078125,42.5048828125,41.5771484375,40.8447265625,39.7216796875,38.7939453125,37.2314453125,37.2314453125,36.0107421875,35.8642578125,36.9873046875,38.6474609375,39.5263671875,40.5517578125,41.1865234375,41.5771484375,40.8935546875,39.4775390625,40.2099609375,41.3818359375,40.2099609375,38.8427734375,37.6220703125,37.2314453125,36.7431640625,35.4248046875,35.0341796875,34.5947265625,33.4716796875,32.3974609375,31.7626953125,31.8603515625,35.2294921875,38.0615234375,38.5986328125,40.6494140625,42.4072265625,43.3837890625,41.8212890625,41.5771484375,42.2607421875,43.5302734375,42.2119140625,41.8212890625,41.8701171875,42.0654296875,42.3583984375,42.6513671875,41.9677734375,41.6259765625,41.6748046875,40.9423828125,40.5029296875,41.6259765625,43.4814453125,46.2158203125,47.2900390625,48.4130859375,49.0966796875,49.0478515625,48.5595703125,48.1689453125,48.9501953125,48.0224609375,48.5107421875,48.0712890625,48.2177734375,47.9248046875,47.7783203125,47.4365234375,47.0458984375,46.8017578125,45.7763671875,46.0205078125,44.7021484375,44.8974609375,46.0693359375,48.7060546875,50.1220703125,49.8291015625,50.8544921875,51.4892578125,51.1474609375,49.5849609375,48.7548828125,48.6572265625,47.8759765625,46.6552734375,45.5322265625,44.9462890625,44.2138671875,42.8955078125,42.4072265625,41.1376953125,40.2099609375,39.0869140625,37.9638671875,37.3779296875,36.9384765625,38.4033203125,39.6728515625,40.5517578125,41.6259765625,42.0166015625,42.7978515625,40.7470703125,40.7470703125,39.7705078125,39.7705078125,39.6728515625,39.2822265625,37.9150390625,37.8662109375,36.5478515625,35.3759765625,34.7900390625,34.4482421875,33.4228515625,32.2509765625,31.6162109375,31.5185546875,32.7392578125,34.5458984375,36.0595703125,37.2314453125,38.8427734375,39.9169921875,39.7705078125,38.9892578125,40.6494140625,41.5283203125,41.0888671875,40.2587890625,40.4541015625,41.5283203125,40.7470703125,41.1865234375,40.6494140625,40.4541015625,40.5029296875,40.2099609375,39.9658203125,41.6259765625,43.2861328125,45.5810546875,46.5576171875,47.6318359375,48.2177734375,48.4130859375,47.8759765625,48.0712890625,48.9013671875,48.3642578125,48.3642578125,47.8759765625,47.6806640625,48.1689453125,47.6318359375,46.5576171875,46.9970703125,45.7763671875,45.5810546875,45.2880859375,45.1416015625,46.8994140625,48.9990234375,51.0986328125,52.3681640625,52.9052734375,53.4912109375,54.0771484375,53.1005859375,52.7099609375,53.2470703125,52.2705078125,50.1220703125,48.8037109375,47.4853515625,48.1201171875,46.8505859375,45.6298828125,45.2880859375,43.9697265625,42.8466796875,41.9189453125,40.3076171875,39.9169921875,41.4306640625,42.7001953125,44.6044921875,45.2880859375,45.4345703125,45.6298828125,45.1416015625,44.1162109375,44.1650390625,43.7744140625,43.6767578125,42.8466796875,42.6513671875,41.5771484375,40.4541015625,39.5263671875,38.3056640625,37.5732421875,36.3525390625,35.9619140625,34.5947265625,33.1787109375,34.2041015625,35.0341796875,36.3525390625,38.1591796875,39.3310546875,40.0634765625,38.7939453125,37.7197265625,37.6220703125,37.3779296875,37.4755859375,36.0595703125,35.4248046875,35.4248046875,35.8642578125,35.6201171875,36.1083984375,35.3271484375,35.0341796875,34.9365234375,34.9853515625,34.9853515625,35.4736328125,36.7431640625,38.5009765625,40.0146484375,41.1865234375,43.6767578125,44.3115234375,44.5068359375,44.2626953125,44.3115234375,45.3857421875,45.2880859375,45.9716796875,45.2392578125,45.1416015625,44.9951171875,44.0673828125,44.5556640625,43.7744140625,43.2373046875,42.9443359375,42.0654296875,41.8701171875,44.0673828125,45.8251953125,47.7783203125,47.8759765625,49.1455078125,49.6826171875,50.3662109375,49.7314453125,49.7314453125,49.8291015625,49.5849609375,49.0478515625,47.6806640625,47.9248046875,48.0224609375,47.2900390625,46.9970703125,46.7041015625,46.3623046875,45.8740234375,44.8486328125,45.3369140625,46.3623046875,47.3388671875,48.6572265625,48.1201171875,47.9736328125,48.9990234375,48.0712890625,47.2412109375,46.0205078125,45.9228515625,44.9951171875,43.8720703125,43.7255859375,42.8466796875,41.7236328125,40.7470703125,40.1123046875,39.4775390625,38.5498046875,37.2802734375,36.9873046875,35.4248046875,34.9853515625,37.1337890625,38.6474609375,39.9169921875,39.6728515625,41.3818359375,41.8212890625,41.5771484375,39.9658203125,40.5517578125,39.8193359375,39.2822265625,38.7451171875,38.7939453125,37.6220703125,36.1083984375,35.6689453125,35.5224609375,34.4970703125,33.3740234375,33.5205078125,32.2021484375,31.2255859375,32.4462890625,35.1318359375,36.6943359375,37.8173828125,40.3076171875,41.6259765625,42.2119140625,41.0888671875,41.4794921875,42.8466796875,43.0419921875,41.7724609375,41.7724609375,42.7978515625,42.7978515625,42.6025390625,42.9931640625,41.9677734375,41.8212890625,41.7724609375,41.9189453125,42.0166015625,43.4814453125,45.4833984375,46.7529296875,48.0224609375,49.1943359375,49.4384765625,49.7802734375,49.2431640625,49.4873046875,49.7314453125,49.7314453125,48.6083984375,47.9736328125,48.8525390625,48.9501953125,47.9736328125,48.1201171875,47.2900390625,46.8994140625,47.3388671875,45.9716796875,46.3134765625,46.5576171875,48.9990234375,50.6591796875,50.7568359375,52.1240234375,53.0517578125,53.0517578125,51.8310546875,50.9033203125,51.4892578125,51.2451171875,49.3408203125,47.9248046875,47.3388671875,46.0693359375,44.7998046875,44.0185546875,43.5302734375,42.6025390625,41.3818359375,40.5029296875,39.7705078125,39.4287109375,39.7705078125,42.4072265625,44.4091796875,44.2626953125,45.2880859375,45.8740234375,46.8017578125,45.0439453125,44.2626953125,44.1162109375,43.9208984375,43.3349609375,41.8701171875,41.1376953125,40.1611328125,39.7705078125,38.3544921875,38.1591796875,37.0361328125,36.1572265625,35.6689453125,34.4482421875,33.4716796875,34.8388671875,36.6455078125,38.5498046875,38.8916015625,40.2099609375,41.0400390625,40.6005859375,38.7939453125,38.3056640625,38.3056640625,38.4033203125,37.1826171875,36.5966796875,36.5478515625,36.7919921875,35.9619140625,35.2783203125,35.0830078125,35.7177734375,35.2783203125,34.8388671875,34.7412109375,36.1083984375,38.6474609375,40.6494140625,42.2119140625,43.4326171875,43.9697265625,44.5556640625,44.4091796875,42.9443359375,44.2138671875,44.1162109375,43.5791015625,42.9931640625,42.8466796875,43.3837890625,43.2861328125,43.1396484375,42.4072265625,41.8701171875,41.8212890625,41.5771484375,41.1376953125,41.4306640625,42.1142578125,44.6533203125,46.7041015625,46.2646484375,48.0224609375,48.2666015625,49.2919921875,48.1689453125,48.3154296875,48.5595703125,47.7783203125,46.8505859375,46.3134765625,45.6298828125,45.1904296875,43.9697265625,43.1884765625,41.7724609375,41.8701171875,39.6728515625,38.5498046875,37.3779296875,37.7197265625,40.0634765625,41.0888671875,41.6259765625,41.9677734375,42.8955078125,42.9443359375,42.3583984375,41.4794921875,41.2841796875,40.2587890625,39.4287109375,38.9892578125,38.7451171875,37.1826171875,36.5966796875,35.7177734375,34.9365234375,34.3994140625,33.0810546875,33.0322265625,31.1279296875,31.1279296875,32.2998046875,33.6669921875,34.8876953125,36.0107421875,36.7919921875,37.0361328125,36.3037109375,34.9365234375,34.9365234375,35.3271484375,34.3994140625,34.1064453125,33.9111328125,34.3994140625,34.6435546875,34.7900390625,34.3505859375,34.4970703125,33.9111328125,33.2763671875,32.9345703125,34.1064453125,36.1572265625,38.0615234375,39.7216796875,40.7958984375,41.9677734375,43.5302734375,42.6025390625,42.1630859375,42.8466796875,43.7255859375,43.5302734375,42.0166015625,42.5048828125,43.0419921875,42.5048828125,41.6259765625,41.6748046875,41.5283203125,40.9423828125,40.5029296875,39.6728515625,41.1865234375,42.8955078125,45.3857421875,46.1669921875,47.2412109375,47.2412109375,47.7783203125,47.4853515625,47.4853515625,47.0458984375,46.8017578125,46.3623046875,45.4833984375,45.3857421875,45.0439453125,45.0439453125,44.1650390625,44.3603515625,43.7255859375,41.9677734375,41.8701171875,41.5283203125,41.9189453125,44.1650390625,46.0205078125,46.2646484375,47.5830078125,48.6083984375,49.9267578125,48.4619140625,46.4599609375,46.8505859375,47.3388671875,45.7763671875,44.5068359375,43.5302734375,43.7255859375,42.5048828125,41.8701171875,40.5517578125,40.1123046875,38.1591796875,37.7197265625,36.2548828125,35.1318359375,35.0830078125,36.6943359375,37.8173828125,38.5009765625,39.4287109375,39.4287109375,40.4052734375,39.1845703125,38.5498046875,39.5263671875,40.5517578125,39.7705078125,39.3310546875,39.0380859375,38.8427734375,38.7939453125,37.3291015625,36.8408203125,35.7666015625,34.9365234375,33.8623046875,32.6416015625,32.8369140625,34.8876953125,36.2548828125,37.2802734375,38.4033203125,40.2099609375,40.4541015625,38.8427734375,38.1103515625,39.8681640625,40.1123046875,39.2822265625,38.5498046875,38.9892578125,39.7705078125,39.3310546875,39.5263671875,39.0380859375,38.5986328125,38.5986328125,38.3544921875,37.9638671875,39.4287109375,40.8447265625,43.5302734375,43.5791015625,45.1416015625,47.2900390625,47.1923828125,46.4111328125,45.9228515625,47.1435546875,47.2900390625,46.3623046875,45.4833984375,45.9716796875,45.6298828125,45.6298828125,46.0205078125,45.5322265625,45.1904296875,44.7998046875,43.8720703125,44.2138671875,44.9951171875,46.6552734375,48.9501953125,49.4384765625,50.1708984375,51.1962890625,52.5146484375,51.7822265625,50.8056640625,52.0263671875,51.9775390625,51.2451171875,49.6826171875,49.6826171875,49.6337890625,49.5849609375,49.9267578125,49.3408203125,49.0966796875,48.7548828125,48.3642578125,47.9248046875,48.1689453125,49.6337890625,51.1962890625,51.9775390625,52.3681640625,53.2958984375,54.0283203125,53.3447265625,50.9033203125,50.6103515625,50.3173828125,48.9013671875,47.6318359375,46.8505859375,46.0693359375,45.0927734375,44.2626953125,43.2861328125,42.9931640625,41.6748046875,41.2353515625,40.4052734375,39.7705078125,41.3818359375,42.9443359375,43.8720703125,44.8486328125,45.0439453125,46.4599609375,45.3857421875,44.1162109375,43.7744140625,43.7744140625,43.3349609375,42.9443359375,43.0908203125,42.8955078125,42.5537109375,41.3818359375,40.7958984375,40.3564453125,39.8681640625,38.6962890625,37.8662109375,38.5986328125,40.8935546875,43.0419921875,43.7744140625,44.4580078125,46.3623046875,46.8994140625,46.0205078125,46.3623046875,46.8505859375,47.5341796875,46.2158203125,45.9228515625,45.6298828125,46.0205078125,45.8251953125,45.4833984375,44.8486328125,44.4580078125,44.1650390625,43.5791015625,44.3603515625,46.3623046875,48.3642578125,49.0966796875,49.0966796875,50.8056640625,51.7333984375,51.2451171875,49.6337890625,51.0009765625,50.8544921875,50.0244140625,49.3896484375,49.2919921875,49.6826171875,49.8291015625,49.2431640625,48.8037109375,48.1689453125,47.5830078125,46.9482421875,47.0458984375,47.9248046875,49.9267578125,52.1240234375,52.6123046875,53.5888671875,53.9306640625,53.9794921875,53.7353515625,53.1982421875,53.1982421875,53.2958984375,52.4658203125,52.0751953125,51.6357421875,51.8798828125,51.3916015625,51.1474609375,50.3173828125,49.0478515625,47.7783203125,46.3134765625,45.8740234375,47.6806640625,49.2919921875,49.4873046875,49.3408203125,50.1220703125,49.9755859375,49.4873046875,48.2177734375,47.0947265625,47.3876953125,46.4111328125,45.7275390625,44.6533203125,43.3349609375,43.1884765625,42.7490234375,41.4306640625,40.8935546875,39.7216796875,39.2333984375,38.5009765625,37.2314453125,39.3310546875,39.7705078125,41.7236328125,42.9931640625,43.3349609375,44.3603515625,43.7744140625,41.7236328125,42.4560546875,43.0419921875,42.3095703125,41.3330078125,40.6982421875,40.6494140625,40.6494140625,39.5751953125,39.6728515625,39.0869140625,38.8916015625,38.7939453125,39.2822265625,40.3076171875,42.4560546875,45.2880859375,46.9482421875,47.8271484375,48.9501953125,49.7314453125,49.3408203125,48.9013671875,50.2197265625,50.3662109375,49.8291015625,49.4384765625,49.1943359375,50.2197265625,50.0732421875,49.2431640625,49.1455078125,48.5595703125,48.3642578125,47.7294921875,47.3876953125,49.1455078125,51.0498046875,53.0517578125,53.5888671875,55.3955078125,56.0302734375,56.2255859375,54.6630859375,54.1259765625,54.8095703125,55.1513671875,53.3935546875,52.7587890625,52.7587890625,53.2470703125,52.9052734375,52.9541015625,52.8076171875,51.8798828125,52.2216796875,51.9775390625,51.3916015625,52.2705078125,53.7353515625,56.6650390625,56.9091796875,58.8623046875,59.0576171875,59.0087890625,58.9111328125,57.5927734375,59.0087890625,58.8623046875,58.0322265625,57.7392578125,57.8369140625,57.7880859375,56.1767578125,56.1279296875,55.8837890625,54.9560546875,53.4912109375,52.7587890625,50.7080078125,50.7080078125,52.1240234375,53.8818359375,54.0771484375,53.7353515625,53.9794921875,54.7119140625,54.2236328125,52.8076171875,53.1982421875,52.6123046875,52.0751953125,50.6591796875,49.9755859375,49.3896484375,47.5830078125,47.2900390625,45.7275390625,45.4345703125,44.3115234375,43.3349609375,42.3095703125,41.8701171875,42.7001953125,45.1904296875,46.2646484375,46.7529296875,47.4365234375,48.7060546875,48.2666015625,45.8251953125,45.6787109375,45.7763671875,45.5322265625,44.9462890625,45.0927734375,43.8232421875,43.6279296875,42.7490234375,42.3583984375,41.9189453125,41.6748046875,41.0400390625,40.4052734375,40.3076171875,42.1630859375,44.9462890625,46.5087890625,47.5341796875,48.8525390625,49.2431640625,48.8525390625,47.9736328125,47.5830078125,48.2666015625,48.4619140625,46.5087890625,46.3623046875,46.3623046875,46.7041015625,45.8251953125,45.4345703125,45.1904296875,44.4091796875,44.0673828125,43.6279296875,44.2138671875,46.3134765625,47.4365234375,48.5595703125,49.6337890625,51.0986328125,50.7568359375,50.2685546875,49.9755859375,50.7568359375,51.1474609375,50.1220703125,49.6826171875,50.0244140625,50.0732421875,49.5361328125,48.7548828125,48.9013671875,47.1435546875,46.9970703125,46.4599609375,45.9228515625,46.7529296875,47.7294921875,49.6826171875,49.4384765625,50.5126953125,51.4892578125,51.9775390625,50.9521484375,49.0478515625,49.4384765625,49.2431640625,47.5830078125,46.5576171875,46.0693359375,45.0439453125,44.3603515625,43.1884765625,42.2607421875,41.4794921875,40.6494140625,39.1845703125,38.6474609375,38.7451171875,40.4052734375,42.4560546875,42.6513671875,42.9931640625,43.3837890625,44.1650390625,42.9931640625,42.3583984375,42.2119140625,42.2119140625,41.2353515625,39.9658203125,39.3798828125,38.7451171875,38.1103515625,37.3779296875,36.4501953125,35.6201171875,34.7900390625,34.5947265625,33.8134765625,35.6689453125,36.7431640625,38.3544921875,39.1845703125,39.9658203125,40.8935546875,40.1611328125,38.7451171875,39.6728515625,41.3330078125,41.1376953125,39.9169921875,40.2587890625,41.3330078125,40.9912109375,40.7470703125,41.4306640625,40.6494140625,39.9169921875,39.6240234375,40.0634765625,40.3564453125,41.9189453125,44.4580078125,45.6787109375,47.4853515625,48.5595703125,50.0244140625,49.4384765625,48.6572265625,49.9267578125,50.2685546875,49.9267578125,49.4384765625,49.4873046875,48.9013671875,49.5361328125,49.3408203125,48.9013671875,48.3154296875,47.6806640625,47.7783203125,47.2412109375,48.5595703125,50.7568359375,53.3447265625,54.5654296875,54.6142578125,56.5673828125,56.5185546875,56.1767578125,56.4208984375,56.9580078125,56.8115234375,56.4697265625,55.3955078125,55.1025390625,54.5654296875,53.8330078125,53.4423828125,51.8310546875,51.8310546875,50.9521484375,50.0732421875,48.5107421875,47.9248046875,50.6591796875,52.8564453125,53.0029296875,53.6376953125,55.2490234375,55.4931640625,54.7119140625,52.9541015625,52.4169921875,51.5869140625,51.8798828125,51.0009765625,49.6826171875,48.2666015625,47.6806640625,46.6064453125,45.5322265625,44.4580078125,44.4580078125,43.6279296875,42.9931640625,41.6748046875,42.6513671875,44.5068359375,45.8251953125,47.1923828125,48.5107421875,47.8759765625,48.0712890625,47.0947265625,46.9970703125,47.2412109375,46.6064453125,45.8740234375,45.4833984375,45.3857421875,44.7509765625,44.4091796875,43.0908203125,42.4560546875,42.0654296875,41.4306640625,42.1142578125,41.4794921875,43.7255859375,45.8740234375,47.4365234375,48.0712890625,50.4150390625,51.0498046875,50.7080078125,49.5849609375,50.4638671875,51.3427734375,50.9521484375,50.3173828125,49.7314453125,50.1220703125,50.3173828125,49.7802734375,48.7060546875,48.4619140625,47.9736328125,48.2177734375,47.2900390625,48.0712890625,49.1455078125,52.0263671875,52.9052734375,53.7841796875,54.6630859375,54.6142578125,53.9794921875,53.0517578125,53.3935546875,53.9306640625,53.0029296875,52.0751953125,51.7333984375,51.8310546875,51.8310546875,51.8310546875,52.0263671875,50.6103515625,50.2685546875,50.6103515625,49.1943359375,49.3408203125,50.5615234375,52.6123046875,54.1259765625,54.7119140625,55.4443359375,55.8349609375,56.0791015625,54.7119140625,55.7373046875,55.6884765625,53.9794921875,52.7587890625,51.4892578125,50.5615234375,49.6337890625,49.0966796875,47.7783203125,47.0458984375,45.6787109375,44.4580078125,43.8232421875,43.1396484375,44.4091796875,45.7763671875,45.4833984375,46.7529296875,47.3876953125,46.8017578125,46.8017578125,46.1669921875,46.0205078125,46.3134765625,45.7275390625,44.5556640625,44.2138671875,42.7978515625,42.5537109375,41.8701171875,41.0888671875,40.4541015625,39.1845703125,39.0869140625,38.2080078125,37.5732421875,39.9658203125,40.9912109375,42.3095703125,43.5791015625,44.3115234375,43.8232421875,42.6025390625,42.1630859375,42.8466796875,43.7744140625,42.8955078125,41.9189453125,41.7236328125,40.8447265625,40.9423828125,41.3330078125,41.1376953125,41.4306640625,40.9423828125,41.3818359375,41.7236328125,43.9208984375,47.3388671875,48.4130859375,49.7314453125,50.7080078125,51.9287109375,51.7333984375,51.0498046875,52.3193359375,53.0029296875,52.6123046875,51.9775390625,52.0263671875,52.1728515625,52.3193359375,51.9775390625,51.3916015625,51.1474609375,50.6103515625,50.0244140625,50.6103515625,52.2705078125,54.1748046875,55.6884765625,56.7138671875,57.6904296875,58.4228515625,58.4716796875,57.9345703125,58.7646484375,58.6181640625,58.4716796875,58.7158203125,57.2021484375,57.4462890625,57.5439453125,57.3974609375,57.4462890625,56.9580078125,56.5673828125,56.2744140625,55.3466796875,56.5673828125,59.0576171875,58.7646484375,58.8623046875,58.4228515625,58.9111328125,58.6669921875,57.0556640625,56.7626953125,56.6162109375,56.0302734375,55.9814453125,54.9560546875,54.1748046875,53.1005859375,52.0751953125,51.2451171875,51.0009765625,49.8291015625,48.6572265625,47.7783203125,46.6552734375,47.0458984375,48.2666015625,49.8291015625,50.9033203125,52.1240234375,52.8076171875,53.6376953125,52.8076171875,51.5380859375,51.6845703125,51.0986328125,50.8056640625,51.0009765625,50.1220703125,49.3408203125,48.5595703125,47.1435546875,46.9970703125,46.3134765625,45.0439453125,44.1650390625,43.1884765625,44.2626953125,46.5087890625,48.6083984375,49.0966796875,50.5126953125,52.5146484375,53.5400390625,53.1005859375,52.5634765625,53.3935546875,54.0283203125,53.5888671875,53.0517578125,52.7099609375,53.2470703125,52.6611328125,52.0751953125,51.4404296875,51.0009765625,50.9521484375,51.0009765625,50.9033203125,52.5146484375,55.1025390625,56.7138671875,58.0810546875,58.2275390625,59.0087890625,59.3505859375,58.9599609375,59.2041015625,58.8134765625,59.0576171875,58.2763671875,58.5693359375,58.0322265625,57.8857421875,57.0556640625,56.7138671875,55.6396484375,55.0537109375,54.6142578125,54.6630859375,53.1494140625,54.9072265625,55.6396484375,57.4951171875,57.0068359375,57.8857421875,58.4228515625,57.7880859375,56.6162109375,55.4443359375,55.2978515625,54.5654296875,52.7099609375,52.0263671875,50.6103515625,49.7802734375,48.2666015625,47.4853515625,46.5087890625,45.1416015625,44.3115234375,42.6513671875,41.5283203125,42.7490234375,44.0673828125,44.9462890625,45.7275390625,46.5576171875,46.3623046875,46.4599609375,44.2626953125,44.1162109375,44.7998046875,45.4345703125,43.6767578125,43.1396484375,41.9677734375,41.7236328125,40.3076171875,40.0634765625,38.7451171875,38.3544921875,37.2802734375,36.3525390625,35.6689453125,37.3779296875,38.5986328125,40.2587890625,40.0146484375,41.2841796875,42.5048828125,42.1142578125,41.4794921875,42.2119140625,43.5791015625,43.3349609375,42.7001953125,42.6025390625,42.7001953125,42.4560546875,42.7490234375,42.3583984375,42.1630859375,41.6748046875,41.8212890625,41.3818359375,42.1630859375,42.8955078125,45.0927734375,46.3134765625,46.7041015625,48.4619140625,49.4384765625,49.5849609375,48.0224609375,49.5361328125,49.3896484375,48.9990234375,48.9990234375,48.5107421875,49.4873046875,49.6826171875,48.2666015625,48.3642578125,48.3154296875,47.4853515625,46.8505859375,46.5087890625,46.2158203125,47.5830078125,49.0966796875,50.6591796875,51.7822265625,53.0517578125,54.3701171875,54.4677734375,54.5654296875,54.6142578125,54.8583984375,54.6630859375,53.9306640625,53.5400390625,53.4912109375,53.5400390625,52.7099609375,51.6357421875,51.0009765625,49.8779296875,48.9990234375,48.3642578125,47.6318359375,46.5576171875,46.8017578125,49.1455078125,50.3173828125,50.7568359375,51.7333984375,52.8564453125,53.0517578125,52.3193359375,52.1728515625,51.8310546875,51.6845703125,51.3427734375,50.7568359375,50.4150390625,50.1220703125,49.2431640625,48.0712890625,47.6806640625,47.2412109375,46.4599609375,45.8251953125,45.1904296875,44.0673828125,45.5322265625,46.8017578125,48.6572265625,50.2685546875,50.7568359375,51.7333984375,52.0263671875,50.4638671875,50.0732421875,50.6591796875,50.9033203125,49.6337890625,49.3896484375,49.4873046875,49.8291015625,49.2919921875,48.6083984375,48.4130859375,47.9248046875,48.5107421875,48.5595703125,48.3154296875,50.7080078125,53.0517578125,54.8583984375,55.4443359375,57.4462890625,58.3740234375,58.2763671875,57.3486328125,57.7392578125,57.9345703125,57.7880859375,58.0322265625,57.4462890625,58.1298828125,58.3251953125,58.0322265625,58.3251953125,57.4462890625,56.4208984375,56.4208984375,55.7861328125,55.2490234375,56.7626953125,57.7392578125,60.1806640625,60.5712890625,62.0361328125,62.3291015625,62.5244140625,62.2802734375,61.3525390625,61.3525390625,61.6455078125,59.8388671875,59.0087890625,59.0087890625,58.7646484375,58.2763671875,57.4462890625,57.2998046875,57.6904296875,57.4951171875,56.3720703125,55.7373046875,55.1025390625,54.4677734375,54.8583984375,56.5185546875,57.8369140625,57.8857421875,57.3974609375,58.8623046875,58.0810546875,56.9091796875,55.5908203125,55.2001953125,54.8095703125,53.5888671875,52.1728515625,51.6357421875,50.9033203125,50.3173828125,48.9013671875,47.5830078125,47.2412109375,46.1669921875,45.3369140625,44.2138671875,44.0673828125,42.9443359375,41.9189453125,42.8466796875,44.3603515625,45.2392578125,45.9716796875,46.3623046875,47.6318359375,46.8017578125,45.5322265625,46.0205078125,45.9716796875,45.8740234375,44.6533203125,44.2138671875,43.6279296875,43.0908203125,42.4560546875,41.3818359375,40.1611328125,39.5263671875,38.8916015625,39.0869140625,38.6962890625,38.8916015625,41.0400390625,42.9443359375,43.1396484375,44.8974609375,46.3134765625,46.6552734375,45.1904296875,44.4580078125,45.9228515625,46.7041015625,46.8017578125,46.2158203125,46.2158203125,46.5576171875,46.6064453125,46.7041015625,46.7041015625,46.1669921875,46.1181640625,45.8251953125,45.0439453125,45.9228515625,47.2900390625,49.0966796875,50.3173828125,51.9287109375,52.8076171875,53.9794921875,53.9306640625,53.3447265625,53.3935546875,53.7353515625,53.1982421875,52.4169921875,51.9287109375,52.2216796875,52.5146484375,52.9541015625,52.7099609375,52.5146484375,51.8798828125,51.7822265625,51.0009765625,50.6103515625,51.1962890625,53.1982421875,55.6396484375,56.7138671875,57.1533203125,58.8623046875,59.2529296875,59.2041015625,57.8369140625,58.4228515625,57.9833984375,57.9345703125,57.4462890625,56.7138671875,56.4697265625,55.9326171875,55.7861328125,54.4189453125,53.3935546875,52.3681640625,51.3916015625,49.7802734375,48.7060546875,50.0244140625,51.3427734375,53.1494140625,54.7607421875,55.7373046875,56.8603515625,56.7626953125,55.1513671875,55.2490234375,55.0537109375,54.6630859375,54.7607421875,54.3701171875,54.2236328125,53.2470703125,52.6123046875,51.6357421875,50.8544921875,50.4150390625,49.7314453125,48.9990234375,48.1689453125,48.4619140625,49.8779296875,52.2216796875,53.6865234375,54.8583984375,56.2255859375,56.8115234375,56.9580078125,56.2744140625,57.9345703125,58.4716796875,58.3251953125,58.2763671875,58.3740234375,58.2763671875,57.6904296875,58.5205078125,58.0810546875,57.6416015625,58.2763671875,57.7880859375,57.2021484375,57.8857421875,59.2529296875,62.0849609375,62.1337890625,63.7451171875,64.6728515625,64.7705078125,64.2333984375,63.0126953125,63.6474609375,64.9658203125,63.5498046875,62.5244140625,61.4990234375,61.7431640625,61.4501953125,61.4990234375,61.5478515625,61.0595703125,60.7177734375,60.0830078125,59.2529296875,58.2275390625,60.0341796875,61.7919921875,63.8427734375,64.0869140625,64.6728515625,65.9423828125,65.7958984375,65.5517578125,64.6728515625,65.5029296875,64.9658203125,63.4033203125,62.0849609375,61.3525390625,60.7666015625,59.1552734375,57.9833984375,56.4697265625,55.8837890625,54.3212890625,53.9794921875,52.2216796875,51.4892578125,52.8076171875,53.9794921875,54.9560546875,55.3955078125,55.8349609375,56.6650390625,56.2255859375,54.5166015625,54.7119140625,54.1259765625,54.3701171875,52.9541015625,52.6611328125,51.6357421875,50.7080078125,50.1220703125,49.3896484375,48.4130859375,47.2900390625,46.0693359375,45.7275390625,45.4833984375,44.2626953125,44.7509765625,46.5576171875,47.1435546875,47.3388671875,47.9248046875,47.6318359375,47.6318359375,46.7529296875,47.4853515625,47.7294921875,48.0224609375,46.6064453125,46.5087890625,46.6064453125,47.0458984375,47.3388671875,46.7041015625,45.8740234375,46.0205078125,46.2158203125,45.2880859375,45.5810546875,46.4599609375,47.9248046875,49.3896484375,50.7568359375,51.1962890625,53.2958984375,54.0771484375,53.8818359375,53.1005859375,53.6865234375,53.5888671875,53.2470703125,52.7587890625,52.3681640625,52.5634765625,52.6123046875,52.1240234375,51.5869140625,51.3427734375,50.5126953125,50.0732421875,49.7314453125,49.2919921875,48.9013671875,50.5126953125,51.1962890625,52.1728515625,53.4912109375,54.9560546875,55.5908203125,55.5908203125,55.5419921875,55.4931640625,55.5908203125,55.6396484375,54.9072265625,53.2470703125,53.6865234375,54.1748046875,53.6376953125,53.1005859375,52.0751953125,50.8056640625,50.0732421875,48.3642578125,47.1435546875,46.0205078125,45.3857421875,44.9951171875,47.6806640625,48.0224609375,48.9990234375,49.7802734375,50.5126953125,51.2451171875,50.6591796875,50.1220703125,49.9755859375,49.7314453125,49.2431640625,49.0478515625,48.3154296875,48.1689453125,47.6318359375,47.0458984375,46.4111328125,45.8740234375,44.5068359375,44.2626953125,43.4326171875,42.3583984375,42.3583984375,42.8466796875,45.3369140625,46.4111328125,47.5830078125,49.1455078125,50.0732421875,49.5361328125,48.8037109375,48.9501953125,49.4873046875,48.4130859375,48.0712890625,48.1689453125,48.2666015625,48.4130859375,47.6318359375,47.4853515625,47.6318359375,47.4853515625,47.6318359375,47.2412109375,47.5341796875,50.2685546875,52.3193359375,54.2724609375,55.7373046875,56.8115234375,57.5439453125,57.8857421875,56.9091796875,58.0810546875,59.0087890625,58.3740234375,57.1533203125,57.9833984375,58.2275390625,57.1533203125,57.2998046875,57.1533203125,56.9580078125,56.1279296875,56.3232421875,55.5419921875,56.3232421875,57.9833984375,60.7177734375,61.6455078125,63.1103515625,63.8427734375,65.0146484375,63.5986328125,62.7197265625,63.2568359375,64.5263671875,63.2080078125,62.4755859375,61.8896484375,62.0361328125,62.0361328125,61.2548828125,61.1083984375,61.1083984375,60.2294921875,60.0830078125,59.9365234375,60.2783203125,61.2548828125,61.3525390625,61.6455078125,62.7197265625,63.0126953125,62.9638671875,61.4013671875,60.9130859375,59.5947265625,59.5458984375,58.4716796875,57.2998046875,56.2744140625,55.8837890625,55.2001953125,54.1748046875,53.3447265625,52.2705078125,51.4892578125,50.7080078125,49.1943359375,50.3662109375,52.5146484375,52.6611328125,53.3447265625,53.7353515625,54.2724609375,52.9541015625,51.9775390625,51.5869140625,52.2705078125,51.1474609375,50.3662109375,49.5849609375,49.2431640625,48.5595703125,48.2666015625,46.6064453125,45.6298828125,44.5068359375,44.7509765625,44.0185546875,44.6044921875,46.8505859375,48.4130859375,48.6083984375,49.3896484375,51.7333984375,51.6845703125,50.7080078125,50.0244140625,51.5869140625,51.1962890625,49.6337890625,48.9990234375,49.1943359375,49.6337890625,49.0966796875,48.7060546875,48.8525390625,48.6083984375,47.9736328125,47.7783203125,48.2666015625,49.7802734375,51.2939453125,52.5634765625,52.5634765625,53.7353515625,53.9306640625,53.8330078125,53.2470703125,53.6865234375,54.0771484375,53.1982421875,51.9287109375,51.5380859375,52.1728515625,51.3916015625,51.6845703125,51.5380859375,50.9521484375,50.0244140625,50.1708984375,48.8525390625,48.6083984375,50.4638671875,51.6845703125,53.0517578125,52.1240234375,52.9541015625,54.3701171875,54.5654296875,54.2236328125,53.7841796875,54.2724609375,53.8330078125,52.9052734375,51.4404296875,50.8056640625,49.2919921875,47.8759765625,46.7041015625,45.4345703125,44.7998046875,43.6279296875,43.1884765625,42.0166015625,41.2353515625,40.6494140625,41.6748046875,43.3837890625,43.5791015625,44.2626953125,44.2138671875,44.7998046875,44.2626953125,44.1162109375,44.0185546875,43.4326171875,43.1396484375,42.6025390625,43.0908203125,42.3095703125,41.6259765625,41.3818359375,40.1611328125,39.1845703125,38.5498046875,37.8173828125,37.0849609375,37.1826171875,36.5478515625,36.8408203125,38.4033203125,39.1845703125,40.8935546875,41.4794921875,42.4560546875,44.0673828125,43.3349609375,41.7724609375,43.5302734375,43.9697265625,43.7744140625,43.7255859375,43.4326171875,44.0673828125,44.2626953125,44.3115234375,44.4580078125,45.0439453125,45.3369140625,45.6787109375,44.8974609375,45.2880859375,45.5322265625,47.7294921875,50.0244140625,52.1728515625,53.5400390625,54.9072265625,55.3955078125,56.5185546875,55.4931640625,56.2744140625,57.2509765625,57.2998046875,56.5673828125,56.3232421875,56.5185546875,57.2998046875,57.4951171875,57.3974609375,56.4697265625,56.6162109375,56.0791015625,55.3466796875,55.4443359375,54.7607421875,56.0791015625,57.2021484375,59.3505859375,61.6455078125,62.9638671875,64.1845703125,65.9423828125,65.7470703125,65.2587890625,66.1376953125,65.6982421875,65.7958984375,64.8681640625,64.9169921875,64.7705078125,64.8681640625,64.6728515625,64.2822265625,63.2080078125,62.9150390625,62.4267578125,60.1806640625,58.6181640625,57.3486328125,56.5673828125,57.1533203125,59.2041015625,60.6689453125,61.1083984375,62.9150390625,63.0615234375,63.9892578125,62.2802734375,61.8408203125,60.7666015625,60.5224609375,60.4736328125,59.1552734375,58.3251953125,57.4462890625,56.3232421875,55.2978515625,54.4677734375,53.2958984375,52.7587890625,51.4892578125,50.7080078125,49.6826171875,48.8525390625,48.6572265625,49.4384765625,50.5615234375,52.1728515625,52.1240234375,53.4423828125,53.3447265625,52.7099609375,51.7822265625,52.6611328125,52.9541015625,53.5888671875,51.8798828125,51.2939453125,52.5634765625,53.0029296875,52.5146484375,52.9052734375,52.6123046875,52.6611328125,52.3193359375,52.5634765625,51.8310546875,52.3193359375,53.6376953125,55.5908203125,57.4462890625,57.9345703125,58.0810546875,58.9599609375,58.1298828125,57.6904296875,58.2763671875,57.8857421875,56.9580078125,56.2255859375,55.8837890625,56.4697265625,56.7626953125,56.0302734375,55.5419921875,55.1513671875,54.6142578125,54.4189453125,53.4912109375,52.9541015625,53.2470703125,53.8818359375,54.9560546875,56.0791015625,57.2509765625,58.1787109375,58.5205078125,58.6181640625,57.9345703125,57.4462890625,58.2763671875,57.9345703125,57.0068359375,56.2255859375,56.3720703125,56.3232421875,56.5185546875,55.8837890625,55.4443359375,54.6142578125,54.3701171875,53.6865234375,53.0029296875,52.6123046875,51.8798828125,51.5380859375,52.8076171875,54.1259765625,54.4189453125,53.8330078125,55.2490234375,55.1513671875,54.7607421875,53.1494140625,53.1005859375,52.4658203125,50.8544921875,50.7568359375,49.3408203125,49.4873046875,48.6083984375,47.6318359375,46.2646484375,46.4111328125,44.8486328125,44.4091796875,43.4814453125,43.1396484375,42.0654296875,40.7470703125,42.0654296875,43.6767578125,44.6044921875,45.9228515625,46.1669921875,46.5087890625,46.1181640625,45.6787109375,45.0927734375,45.6298828125,44.4091796875,44.6044921875,44.5556640625,43.2373046875,43.2861328125,42.5048828125,42.1142578125,42.1630859375,41.0400390625,40.3076171875,39.9169921875,39.3310546875,38.8916015625,39.4287109375,40.6005859375,42.1142578125,42.9931640625,44.7998046875,46.7041015625,47.8271484375,47.5830078125,48.0712890625,49.8291015625,50.5126953125,49.6337890625,49.8291015625,50.3662109375,51.0498046875,51.3427734375,50.6591796875,50.4150390625,50.8056640625,50.4150390625,50.3662109375,50.3662109375,49.6826171875,50.1708984375,52.1728515625,54.0283203125,56.4208984375,57.5439453125,58.7158203125,59.7900390625,59.6435546875,59.1064453125,60.8154296875,60.7666015625,60.5224609375,59.8876953125,59.5458984375,60.2783203125,60.8154296875,59.8388671875,59.6435546875,59.4482421875,59.2041015625,58.5693359375,57.8369140625,58.2763671875,57.3486328125,57.3486328125,58.6181640625,60.9130859375,63.2568359375,64.1357421875,66.0888671875,66.2353515625,66.3330078125,65.0146484375,65.5029296875,66.4794921875,66.5771484375,65.1611328125,65.2099609375,64.6240234375,64.8193359375,64.7705078125,64.0380859375,63.7451171875,63.4521484375,63.0126953125,62.2314453125,61.9384765625,61.4990234375,61.1572265625,62.2802734375,63.6962890625,64.5263671875,64.8681640625,65.2587890625,65.5029296875,64.5751953125,63.3056640625,62.5244140625,61.7919921875,60.9619140625,60.4736328125,59.6435546875,58.6181640625,57.8369140625,57.0068359375,56.1279296875,55.1025390625,54.2236328125,53.6376953125,52.7587890625,51.4892578125,50.7080078125,49.5361328125,49.5361328125,50.9033203125,51.7822265625,53.7841796875,54.5166015625,54.8095703125,55.2001953125,53.8330078125,52.6123046875,52.8564453125,53.7353515625,53.4912109375,53.0517578125,53.5888671875,52.6611328125,51.9775390625,51.7822265625,50.6591796875,50.5126953125,49.5361328125,49.3896484375,48.8525390625,48.5595703125,48.5107421875,50.0732421875,51.9287109375,53.1494140625,54.5654296875,55.2001953125,56.2255859375,55.8349609375,55.2490234375,55.8837890625,56.4208984375,55.5419921875,55.5419921875,55.7861328125,55.5908203125,55.1025390625,54.9560546875,54.1748046875,53.9306640625,53.2470703125,53.6376953125,52.9052734375,52.0751953125,52.5146484375,53.6865234375,54.6630859375,55.8837890625,56.3720703125,57.2021484375,57.2021484375,57.4462890625,56.8115234375,57.0556640625,57.1533203125,56.2255859375,56.3720703125,55.7373046875,56.3232421875,56.0791015625,55.4931640625,55.2978515625,55.3466796875,54.1748046875,54.0771484375,53.1982421875,52.8564453125,52.0263671875,52.0263671875,52.8564453125,53.7841796875,55.8349609375,56.0791015625,56.9580078125,57.3486328125,57.4951171875,57.0068359375,56.5673828125,56.4208984375,56.3720703125,54.7607421875,54.3212890625,53.3447265625,52.0751953125,51.7333984375,51.1962890625,50.3173828125,49.7802734375,50.0244140625,47.6318359375,47.5341796875,46.8994140625,46.8017578125,48.8525390625,50.0732421875,49.9267578125,51.0986328125,51.5869140625,53.0029296875,52.2705078125,50.3662109375,50.7568359375,50.2197265625,49.4384765625,48.3154296875,47.8271484375,47.2900390625,46.7041015625,46.1669921875,45.7275390625,45.3857421875,44.5556640625,43.8232421875,43.0419921875,42.1630859375,41.3330078125,42.1630859375,43.9697265625,45.9228515625,46.6064453125,48.0712890625,48.3154296875,48.2666015625,47.1923828125,48.0224609375,49.2431640625,49.6337890625,49.0966796875,49.0478515625,50.1708984375,50.5126953125,50.8544921875,51.4404296875,51.1962890625,51.1962890625,50.7568359375,50.8056640625,51.1474609375,51.9775390625,52.7099609375,55.6396484375,56.3232421875,58.6181640625,60.5224609375,61.3037109375,61.4990234375,61.1083984375,62.5244140625,62.7197265625,61.7919921875,62.4755859375,62.7685546875,63.9404296875,63.4521484375,63.0615234375,63.2568359375,63.5986328125,63.1103515625,62.6220703125,62.5244140625,61.6943359375,62.0361328125,64.1357421875,65.8447265625,68.6279296875,69.9951171875,72.3876953125,72.5830078125,72.8759765625,72.7783203125,73.4130859375,73.4130859375,73.8037109375,73.2666015625,73.4619140625,73.6572265625,74.0966796875,73.8037109375,73.0224609375,73.1689453125,72.5830078125,72.4853515625,71.9970703125,71.6064453125,70.8740234375,70.3857421875,70.2880859375,71.2158203125,72.4853515625,74.4384765625,75.1708984375,75.8544921875,76.3427734375,76.7333984375,75.3662109375,74.2431640625,73.9013671875,73.3154296875,72.7294921875,71.3623046875,70.1416015625,69.8486328125,68.6767578125,68.2373046875,66.9677734375,65.8447265625,65.3564453125,63.8916015625,62.8173828125,62.1337890625,61.0107421875,60.1318359375,60.9619140625,62.4267578125,63.8916015625,64.5263671875,65.0634765625,64.2333984375,63.8427734375,64.1845703125,63.2080078125,62.1826171875,62.3291015625,61.6943359375,61.2548828125,61.6943359375,60.5224609375,59.9365234375,58.6669921875,57.9833984375,55.9326171875,55.7373046875,54.5166015625,53.4912109375,52.9052734375,54.2236328125,56.0302734375,56.5673828125,57.4462890625,58.4716796875,59.5458984375,59.0087890625,57.1533203125,57.2021484375,58.1298828125,58.2763671875,57.6904296875,56.8603515625,57.2998046875,57.5439453125,57.2021484375,57.0068359375,57.0556640625,56.7138671875,56.2744140625,56.2255859375,55.6884765625,54.9072265625,56.5673828125,57.5927734375,60.0341796875,60.5224609375,60.9130859375,61.9873046875,62.5732421875,61.6455078125,60.8642578125,61.8896484375,60.9130859375,60.6689453125,59.9853515625,60.1806640625,60.7666015625,59.7900390625,59.4482421875,59.3505859375,58.8623046875,58.6181640625,57.8369140625,57.6416015625,56.6650390625,57.5439453125,58.4716796875,60.8154296875,60.9130859375,61.8408203125,62.8173828125,63.3056640625,62.5732421875,62.0361328125,62.8662109375,61.8408203125,61.4013671875,61.4501953125,61.3037109375,61.4990234375,61.3525390625,60.8154296875,60.2294921875,60.2783203125,59.8388671875,58.7646484375,58.4716796875,57.2509765625,57.1044921875,55.8349609375,55.8837890625,57.9833984375,58.5693359375,59.3505859375,59.4482421875,60.0830078125,61.0595703125,60.0341796875,58.8134765625,58.3251953125,57.5927734375,57.3486328125,56.4697265625,56.1279296875,54.8583984375,53.4423828125,53.2470703125,52.7587890625,51.5869140625,50.4150390625,49.3896484375,48.9990234375,47.9248046875,46.8017578125,47.0947265625,48.2666015625,49.3408203125,50.3173828125,51.5380859375,51.9775390625,52.4169921875,51.2451171875,50.2197265625,51.2451171875,50.7080078125,49.6826171875,49.6826171875,48.4619140625,46.5087890625,45.8740234375,45.4345703125,45.4833984375,45.4833984375,45.7275390625,46.3134765625,47.4365234375,47.2412109375,48.5595703125,50.8544921875,53.4912109375,54.2236328125,55.6396484375,57.3974609375,58.0322265625,58.2275390625,57.9345703125,59.2041015625,59.3017578125,59.2529296875,59.1064453125,59.3505859375,59.8876953125,59.5947265625,59.9853515625,59.5947265625,59.0576171875,58.5693359375,58.5693359375,58.2275390625,57.8369140625,58.5693359375,60.6201171875,62.5732421875,63.3056640625,65.8935546875,65.9912109375,67.2119140625,66.7236328125,66.9677734375,67.3095703125,66.5283203125,66.5283203125,66.9189453125,66.0888671875,66.8701171875,66.8701171875,66.5771484375,66.3330078125,65.3076171875,65.6494140625,64.7216796875,64.9658203125,63.8916015625,64.8193359375,65.3076171875,67.7490234375,70.2392578125,71.8505859375,71.9970703125,72.6318359375,72.8271484375,72.6318359375,72.3876953125,72.3388671875,71.9970703125,70.8740234375,69.4580078125,68.5791015625,67.5537109375,67.2119140625,65.6494140625,65.1611328125,63.7451171875,62.3779296875,61.4990234375,60.3271484375,59.3017578125,58.9599609375,60.3759765625,60.4736328125,62.7197265625,63.1591796875,63.6962890625,63.2568359375,62.9638671875,62.6220703125,62.6708984375,61.5478515625,61.2060546875,60.8642578125,60.5712890625,59.6923828125,58.3251953125,57.8857421875,56.9580078125,56.6162109375,55.2490234375,54.6142578125,54.3701171875,52.8076171875,52.6123046875,53.0517578125,55.1513671875,55.1025390625,55.5908203125,56.7626953125,57.3974609375,57.6904296875,56.3232421875,56.1279296875,57.2998046875,57.3486328125,56.9091796875,56.5185546875,56.2255859375,57.1533203125,56.5673828125,56.9580078125,56.1767578125,56.2255859375,56.3720703125,56.1279296875,55.7861328125,56.3720703125,57.6904296875,59.6923828125,60.2294921875,61.3525390625,61.8896484375,62.6708984375,62.8662109375,61.7919921875,62.2802734375,62.3779296875,62.1337890625,61.4990234375,61.0595703125,61.4990234375,61.2548828125,60.5224609375,60.9619140625,60.8154296875,59.2529296875,59.4970703125,58.5205078125,58.1298828125,59.5947265625,59.9853515625,62.4267578125,62.5732421875,63.0615234375,64.0380859375,64.2333984375,63.5498046875,63.2568359375,63.7939453125,63.4033203125,62.4755859375,62.4755859375,61.8896484375,61.6455078125,61.3037109375,60.2783203125,60.1806640625,59.3017578125,58.9111328125,58.9599609375,58.0810546875,58.2763671875,57.5927734375,57.9345703125,59.2529296875,59.8388671875,59.9853515625,59.5458984375,59.7412109375,60.2294921875,58.5205078125,57.7392578125,57.8857421875,57.2998046875,56.5673828125,55.6884765625,54.7119140625,54.5654296875,53.1982421875,53.0517578125,51.7333984375,51.1474609375,49.7314453125,49.6826171875,48.6083984375,48.6572265625,47.1923828125,48.2666015625,49.0478515625,50.3173828125,51.1962890625,51.3427734375,52.5146484375,51.9287109375,50.6591796875,50.5126953125,51.7333984375,50.9033203125,49.8291015625,50.0732421875,49.2431640625,48.6572265625,47.6806640625,47.6806640625,47.3876953125,46.8994140625,45.6298828125,45.1416015625,45.0927734375,44.7021484375,45.2392578125,47.4853515625,48.9013671875,49.7802734375,51.5869140625,53.1982421875,53.1982421875,52.8564453125,52.1240234375,54.2724609375,54.6142578125,54.1259765625,53.7353515625,54.6630859375,54.7607421875,55.1025390625,54.5654296875,54.5654296875,55.0048828125,54.4189453125,53.5400390625,53.6865234375,53.8818359375,54.5654296875,56.5185546875,58.7158203125,60.0341796875,61.4013671875,61.8408203125,62.5732421875,62.4267578125,62.2802734375,63.7939453125,63.3056640625,63.1103515625,62.4755859375,62.9638671875,63.4033203125,63.3056640625,63.5009765625,63.1591796875,62.8173828125,62.5244140625,62.7685546875,62.0849609375,62.9150390625,63.8916015625,66.8212890625,68.1396484375,68.9208984375,70.8251953125,71.1181640625,70.8251953125,70.2392578125,71.3134765625,71.6552734375,70.8740234375,69.7021484375,69.6533203125,68.7255859375,68.2373046875,66.4306640625,65.6005859375,64.6728515625,63.8916015625,63.1591796875,61.5966796875,62.0849609375,63.5009765625,65.4052734375,65.6005859375,66.8212890625,67.3583984375,68.3349609375,67.5537109375,66.6748046875,66.7236328125,65.8447265625,65.8935546875,65.9423828125,64.4287109375,63.5498046875,63.6474609375,62.4755859375,61.8408203125,61.7431640625,60.1806640625,59.9365234375,58.7158203125,58.9111328125,60.3271484375,60.7177734375,61.7919921875,62.9150390625,63.9404296875,63.6962890625,62.7685546875,61.5966796875,61.9873046875,62.4267578125,61.0107421875,60.3271484375,60.5224609375,60.0830078125,60.4248046875,59.5458984375,59.7900390625,59.6923828125,59.5458984375,59.3017578125,58.9599609375,60.8154296875,62.9150390625,63.7939453125,64.8193359375,65.6982421875
