PPG_subj_19,48,F,N,Non-diabetic,98,35.1639,Forehead,0.185546875,0.185546875,0.185546875,0.185546875,0.185546875,0.185546875,92.7099609375,-88.3837890625,-90.0439453125,-89.7998046875,-90.7275390625,-91.8505859375,-92.2412109375,-91.5576171875,-88.8232421875,-86.1376953125,-83.8427734375,-81.3525390625,-79.5947265625,-78.6181640625,-77.1533203125,-77.4462890625,-77.8857421875,-78.0810546875,-78.8623046875,-79.4482421875,-80.8154296875,-81.7431640625,-82.7685546875,-85.0146484375,-85.3564453125,-87.4560546875,-89.7021484375,-91.1181640625,-92.1923828125,-89.6044921875,-87.0166015625,-82.7197265625,-79.3994140625,-76.9580078125,-74.9072265625,-73.9306640625,-74.3212890625,-74.6142578125,-74.8583984375,-75.8349609375,-76.8115234375,-78.4228515625,-80.4736328125,-81.8408203125,-83.0126953125,-84.4775390625,-85.4052734375,-87.1142578125,-88.5302734375,-90.8740234375,-91.4599609375,-91.0205078125,-87.8466796875,-84.6728515625,-81.3037109375,-78.8134765625,-76.3720703125,-75.4443359375,-74.7119140625,-75.1025390625,-75.5908203125,-75.6884765625,-77.1044921875,-78.6181640625,-80.9619140625,-82.2802734375,-83.8916015625,-84.4287109375,-85.6005859375,-87.2607421875,-88.3349609375,-90.1416015625,-91.6064453125,-91.9482421875,-90.3369140625,-87.2119140625,-83.5009765625,-81.4013671875,-79.8876953125,-78.9599609375,-77.4462890625,-77.3974609375,-77.4951171875,-77.8369140625,-78.4716796875,-80.0830078125,-80.2294921875,-81.8896484375,-83.7939453125,-85.0634765625,-86.7236328125,-88.7255859375,-89.7021484375,-92.4365234375,-93.7548828125,-94.4384765625,-93.9013671875,-91.0693359375,-88.1884765625,-85.8935546875,-83.7939453125,-81.4013671875,-80.6201171875,-80.2294921875,-81.7431640625,-82.0849609375,-82.9638671875,-83.6962890625,-85.4052734375,-86.5283203125,-87.2607421875,-89.0673828125,-90.5322265625,-92.3876953125,-93.3642578125,-95.6103515625,-96.7822265625,-98.3935546875,-99.6142578125,-98.0029296875,-94.7802734375,-92.0947265625,-89.8486328125,-92.7783203125,-87.3583984375,-81.9873046875,-76.4697265625,-68.9990234375,-71.9775390625,-82.7685546875,-91.3134765625,-91.5576171875,-87.5048828125,-85.8935546875,-86.5771484375,-88.6767578125,-89.7509765625,-91.0693359375,-92.6806640625,-93.8037109375,-94.3408203125,-93.8525390625,-91.6064453125,-88.4814453125,-90.7275390625,-92.7783203125,-93.6083984375,-90.7275390625,-86.5771484375,-84.4775390625,-84.0380859375,-84.9658203125,-85.1123046875,-87.2607421875,-88.2861328125,-90.9716796875,-92.4365234375,-94.0966796875,-96.6845703125,-98.4423828125,-101.5185546875,-102.5439453125,-103.0810546875,-103.2275390625,-103.0810546875,-101.7626953125,-99.7119140625,-97.6611328125,-95.0732421875,-93.3642578125,-92.4365234375,-91.6552734375,-91.3134765625,-92.1923828125,-92.4853515625,-92.4853515625,-92.1435546875,-92.9248046875,-93.5595703125,-94.5849609375,-95.9033203125,-97.9052734375,-98.5888671875,-99.5654296875,-101.6650390625,-103.3251953125,-104.4970703125,-105.8642578125,-102.2509765625,-100.0537109375,-96.5869140625,-93.7548828125,-92.4853515625,-90.4345703125,-89.4091796875,-89.7998046875,-89.5556640625,-90.0927734375,-91.6552734375,-91.7529296875,-93.1689453125,-94.0478515625,-94.8779296875,-95.9033203125,-96.5869140625,-97.9052734375,-99.7607421875,-101.1279296875,-101.6650390625,-102.5439453125,-101.5185546875,-99.1259765625,-96.2939453125,-93.4130859375,-90.9716796875,-87.6513671875,-84.6728515625,-82.6220703125,-82.3291015625,-82.5732421875,-83.4521484375,-84.3310546875,-85.4052734375,-86.0400390625,-86.9677734375,-88.7255859375,-90.0439453125,-91.1669921875,-92.3876953125,-94.2431640625,-95.8056640625,-96.6845703125,-97.3681640625,-96.8310546875,-94.1455078125,-90.6298828125,-88.1884765625,-84.9658203125,-82.7197265625,-80.9130859375,-79.7412109375,-80.1806640625,-80.1318359375,-80.7666015625,-82.1826171875,-83.1591796875,-84.5751953125,-85.4541015625,-86.5771484375,-88.2373046875,-89.4091796875,-90.8740234375,-93.1201171875,-94.4384765625,-95.3662109375,-96.3427734375,-94.4873046875,-92.2412109375,-88.7744140625,-86.7236328125,-83.4033203125,-81.4990234375,-78.4228515625,-78.0810546875,-77.6904296875,-79.0576171875,-80.9619140625,-81.4501953125,-81.6943359375,-82.7685546875,-82.8662109375,-84.7216796875,-85.6982421875,-87.5048828125,-89.4580078125,-90.7763671875,-91.8505859375,-92.8759765625,-93.7548828125,-90.9716796875,-88.9208984375,-85.8935546875,-82.4755859375,-79.5458984375,-76.8603515625,-75.2978515625,-74.9072265625,-76.0302734375,-76.9580078125,-77.8369140625,-78.7158203125,-79.7412109375,-81.3525390625,-82.7685546875,-84.7216796875,-86.5771484375,-86.8701171875,-88.3349609375,-90.5322265625,-92.0947265625,-93.0224609375,-94.8779296875,-93.2177734375,-89.5068359375,-86.4306640625,-82.7685546875,-80.1318359375,-78.2275390625,-75.7861328125,-73.8330078125,-74.7119140625,-75.7373046875,-76.2255859375,-78.5205078125,-78.6181640625,-80.1318359375,-81.9873046875,-83.5986328125,-85.0146484375,-86.4794921875,-87.9931640625,-89.7509765625,-92.0458984375,-93.0224609375,-93.7060546875,-94.0478515625,-91.0693359375,-88.8232421875,-85.2099609375,-82.2314453125,-79.1552734375,-77.1533203125,-75.5908203125,-74.4677734375,-76.0791015625,-76.8603515625,-78.2275390625,-79.1552734375,-80.6201171875,-82.7685546875,-83.4521484375,-85.6982421875,-87.7490234375,-89.0185546875,-90.6787109375,-92.4365234375,-94.2431640625,-96.0986328125,-96.8310546875,-97.3193359375,-94.5849609375,-90.6298828125,-88.3837890625,-85.7958984375,-83.7451171875,-80.9619140625,-78.6181640625,-77.5439453125,-78.9111328125,-79.6435546875,-81.2060546875,-82.4267578125,-83.8427734375,-84.7705078125,-85.5517578125,-87.6025390625,-89.1162109375,-91.0693359375,-92.3388671875,-93.9013671875,-95.9033203125,-96.8310546875,-97.6611328125,-97.4658203125,-93.2177734375,-90.9716796875,-87.6025390625,-83.7451171875,-81.9873046875,-79.9365234375,-78.9111328125,-79.3994140625,-80.6201171875,-81.7919921875,-82.4755859375,-83.2080078125,-85.2099609375,-86.3818359375,-88.0419921875,-89.1650390625,-90.9228515625,-92.3388671875,-94.2919921875,-95.7080078125,-97.8076171875,-98.7841796875,-99.9072265625,-97.2216796875,-92.9248046875,-89.6044921875,-85.2099609375,-82.2802734375,-78.8134765625,-76.7626953125,-75.8837890625,-76.9580078125,-77.6416015625,-79.4970703125,-80.6201171875,-81.1083984375,-82.8662109375,-84.4287109375,-85.6982421875,-87.5537109375,-87.6513671875,-90.2880859375,-91.5576171875,-93.5107421875,-96.1962890625,-96.5380859375,-96.1962890625,-92.6806640625,-88.5791015625,-85.8447265625,-81.5478515625,-78.8134765625,-76.3720703125,-75.3466796875,-75.4931640625,-76.5185546875,-77.5439453125,-78.2275390625,-79.2529296875,-81.2060546875,-82.6220703125,-84.0869140625,-85.1611328125,-87.2119140625,-88.4326171875,-89.7021484375,-91.7529296875,-93.0712890625,-94.1943359375,-94.2919921875,-92.2900390625,-87.8466796875,-85.4541015625,-82.6220703125,-80.4736328125,-77.8857421875,-76.8115234375,-77.2021484375,-77.9345703125,-78.3251953125,-79.6435546875,-80.6201171875,-82.0361328125,-84.1357421875,-85.7470703125,-87.4560546875,-89.6533203125,-90.8740234375,-92.5830078125,-94.5361328125,-96.2451171875,-97.2705078125,-97.8076171875,-94.2919921875,-91.2646484375,-88.1884765625,-84.4775390625,-81.0107421875,-78.5693359375,-76.1279296875,-76.2744140625,-77.3486328125,-78.6181640625,-79.3505859375,-80.6201171875,-82.0849609375,-83.7451171875,-85.5029296875,-87.3583984375,-89.0673828125,-90.8740234375,-92.3876953125,-94.3896484375,-96.6845703125,-97.3193359375,-98.2470703125,-94.7802734375,-91.4599609375,-88.4814453125,-84.8681640625,-81.6943359375,-78.8623046875,-76.2255859375,-76.6650390625,-77.1044921875,-78.2275390625,-79.5947265625,-80.9130859375,-83.1103515625,-84.0869140625,-86.2841796875,-87.5537109375,-89.7021484375,-91.8017578125,-92.9736328125,-94.2431640625,-96.1474609375,-96.2451171875,-97.4658203125,-95.7080078125,-91.1669921875,-87.2119140625,-83.9892578125,-79.8388671875,-77.4951171875,-75.2001953125,-73.4423828125,-74.9560546875,-75.9814453125,-76.2744140625,-78.3251953125,-79.6923828125,-80.6201171875,-83.3544921875,-83.9892578125,-86.1865234375,-87.8466796875,-88.8720703125,-90.7763671875,-92.8271484375,-94.1943359375,-95.3662109375,-92.5830078125,-88.0908203125,-85.0634765625,-81.4990234375,-78.3251953125,-74.9560546875,-72.9052734375,-72.1728515625,-72.9052734375,-74.0771484375,-74.8095703125,-76.5185546875,-77.6416015625,-78.5205078125,-79.8876953125,-81.5478515625,-82.7197265625,-83.0615234375,-84.9658203125,-86.5283203125,-87.6513671875,-89.0673828125,-89.2138671875,-85.0634765625,-80.8154296875,-77.0068359375,-73.0029296875,-69.1455078125,-66.6552734375,-63.7744140625,-62.9443359375,-63.4814453125,-64.6044921875,-66.6064453125,-68.6083984375,-70.9033203125,-72.8564453125,-74.7607421875,-76.0791015625,-78.2275390625,-80.8642578125,-82.0361328125,-84.0869140625,-86.1865234375,-87.1630859375,-88.2373046875,-84.2822265625,-81.1572265625,-77.8857421875,-74.4677734375,-70.5126953125,-67.4365234375,-65.3857421875,-65.0439453125,-66.3623046875,-68.4130859375,-69.7314453125,-71.1962890625,-71.8310546875,-73.8330078125,-75.4443359375,-77.6904296875,-79.7412109375,-80.6689453125,-82.4755859375,-84.1357421875,-85.7470703125,-87.4072265625,-86.5771484375,-82.2314453125,-79.3505859375,-75.6396484375,-72.3193359375,-68.6572265625,-66.4599609375,-65.8740234375,-67.7294921875,-69.0478515625,-70.4150390625,-72.0751953125,-73.5400390625,-75.5908203125,-77.1533203125,-79.4482421875,-80.8642578125,-82.6708984375,-84.6240234375,-85.9423828125,-87.5537109375,-88.0419921875,-88.0908203125,-84.5751953125,-81.1572265625,-76.4697265625,-73.4912109375,-69.0478515625,-65.5322265625,-64.5556640625,-64.5068359375,-66.6552734375,-68.5107421875,-69.2919921875,-70.9033203125,-72.2216796875,-73.3935546875,-76.1767578125,-78.5205078125,-79.6923828125,-81.8408203125,-83.3056640625,-84.9658203125,-86.3818359375,-88.1396484375,-87.4072265625,-83.7451171875,-79.3017578125,-75.4931640625,-71.2939453125,-67.9736328125,-65.9228515625,-64.9462890625,-67.0947265625,-68.8037109375,-70.0732421875,-72.3681640625,-74.6142578125,-77.0556640625,-79.4970703125,-82.2314453125,-83.7939453125,-85.9423828125,-88.7744140625,-90.5322265625,-92.5341796875,-94.1455078125,-94.5361328125,-90.4833984375,-88.2373046875,-84.7705078125,-81.4501953125,-79.4970703125,-77.6416015625,-77.4462890625,-78.2763671875,-80.2294921875,-81.5966796875,-83.1103515625,-84.3798828125,-86.2353515625,-88.4814453125,-89.8974609375,-91.6064453125,-93.5595703125,-94.9755859375,-96.7822265625,-99.1748046875,-99.7119140625,-99.3212890625,-96.7333984375,-92.8759765625,-89.1162109375,-86.0888671875,-82.4755859375,-79.7412109375,-78.0810546875,-77.9833984375,-79.6435546875,-81.0107421875,-82.1826171875,-84.0869140625,-85.3076171875,-87.7490234375,-89.4580078125,-90.8251953125,-93.3642578125,-95.3173828125,-96.6357421875,-98.4912109375,-99.4189453125,-97.6123046875,-93.9990234375,-89.4091796875,-85.9912109375,-81.4501953125,-78.0322265625,-75.2978515625,-73.8330078125,-75.8349609375,-76.8603515625,-78.3740234375,-80.7177734375,-81.8408203125,-84.5263671875,-86.3818359375,-88.7255859375,-89.7998046875,-91.8505859375,-92.8271484375,-94.0478515625,-95.6591796875,-96.0498046875,-95.1220703125,-91.0205078125,-87.2607421875,-82.6220703125,-78.9111328125,-76.5185546875,-74.5166015625,-72.9052734375,-74.1748046875,-76.2744140625,-77.5439453125,-79.1064453125,-81.4501953125,-83.5986328125,-85.6005859375,-87.3583984375,-89.9951171875,-92.2900390625,-93.7060546875,-95.6103515625,-97.4169921875,-97.9052734375,-97.6123046875,-92.8759765625,-88.8232421875,-85.1611328125,-82.2314453125,-80.0830078125,-78.5693359375,-78.8623046875,-81.4990234375,-82.3779296875,-84.2333984375,-86.0400390625,-86.9189453125,-88.1396484375,-90.0439453125,-92.1923828125,-93.5595703125,-94.6337890625,-96.6357421875,-97.9541015625,-99.6142578125,-101.0302734375,-98.1494140625,-94.0966796875,-90.1416015625,-86.2353515625,-83.3544921875,-80.3271484375,-77.5439453125,-76.9580078125,-79.1552734375,-80.4248046875,-81.5966796875,-82.7685546875,-85.2099609375,-86.6259765625,-89.0185546875,-91.3623046875,-92.5830078125,-95.0732421875,-97.5634765625,-100.4443359375,-101.6650390625,-102.6416015625,-100.9326171875,-97.1240234375,-92.6318359375,-88.1396484375,-84.9169921875,-81.0595703125,-77.7880859375,-77.6416015625,-77.6904296875,-78.4228515625,-79.8388671875,-81.3525390625,-83.3544921875,-86.0400390625,-88.4326171875,-90.5322265625,-92.1435546875,-94.6337890625,-95.9521484375,-98.0517578125,-100.5908203125,-100.8837890625,-100.8349609375,-96.7822265625,-92.3876953125,-89.2626953125,-85.2587890625,-81.5966796875,-78.6181640625,-77.5439453125,-77.0556640625,-77.9345703125,-79.6435546875,-80.4248046875,-82.4755859375,-84.7705078125,-87.0166015625,-88.4326171875,-90.1416015625,-92.7783203125,-94.2431640625,-95.0732421875,-98.4423828125,-99.4677734375,-100.7861328125,-99.2236328125,-93.9501953125,-92.3876953125,-89.3115234375,-85.9423828125,-83.8427734375,-82.9638671875,-82.7197265625,-83.4521484375,-84.2333984375,-84.6728515625,-85.9912109375,-87.3095703125,-88.8232421875,-91.3134765625,-92.6806640625,-94.6337890625,-96.7333984375,-99.2236328125,-101.7138671875,-103.4228515625,-104.3505859375,-103.1787109375,-99.6630859375,-95.9521484375,-93.7060546875,-90.6298828125,-88.4326171875,-86.6259765625,-86.0888671875,-86.8701171875,-88.8720703125,-89.8974609375,-91.1669921875,-91.8017578125,-94.0478515625,-95.9521484375,-98.3447265625,-100.2490234375,-101.5185546875,-103.8623046875,-106.4501953125,-107.3779296875,-109.2333984375,-108.7939453125,-103.3251953125,-100.1513671875,-96.5869140625,-91.9970703125,-88.2373046875,-86.1865234375,-84.1357421875,-84.2822265625,-85.1123046875,-86.0400390625,-87.2119140625,-89.0185546875,-90.6787109375,-93.0712890625,-94.9755859375,-96.7822265625,-98.8330078125,-100.4443359375,-102.9345703125,-104.4970703125,-105.9619140625,-106.6943359375,-104.1552734375,-99.3701171875,-97.3681640625,-94.2431640625,-91.7529296875,-89.7998046875,-88.9697265625,-89.7509765625,-93.0224609375,-94.3408203125,-96.7333984375,-99.1748046875,-101.9580078125,-104.5458984375,-107.2802734375,-110.0634765625,-112.4560546875,-115.1416015625,-117.2412109375,-120.1220703125,-122.4169921875,-123.1005859375,-120.6103515625,-117.2412109375,-114.8974609375,-111.8212890625,-109.8193359375,-108.5009765625,-107.1337890625,-108.4521484375,-109.4287109375,-110.1611328125,-111.1376953125,-112.3583984375,-113.4814453125,-114.7021484375,-116.2646484375,-117.4365234375,-118.9990234375,-119.7802734375,-121.7333984375,-123.2958984375,-123.3447265625,-120.1708984375,-115.9228515625,-112.1630859375,-107.9638671875,-105.2294921875,-102.2998046875,-100.5419921875,-100.0048828125,-101.3720703125,-102.0068359375,-103.6181640625,-104.8388671875,-106.4501953125,-107.6708984375,-108.7939453125,-111.0400390625,-112.0654296875,-113.2861328125,-115.1416015625,-115.8251953125,-117.1435546875,-116.9482421875,-112.3583984375,-107.6220703125,-104.1552734375,-99.8095703125,-95.5126953125,-93.1201171875,-90.8251953125,-90.9228515625,-91.7041015625,-91.8505859375,-92.9736328125,-93.7060546875,-95.4638671875,-96.5869140625,-98.4423828125,-99.6142578125,-101.3720703125,-102.8857421875,-103.7646484375,-105.8154296875,-107.3779296875,-106.4013671875,-102.9833984375,-97.9052734375,-93.8037109375,-90.4345703125,-86.6259765625,-83.8427734375,-83.1103515625,-83.9892578125,-85.4541015625,-86.7236328125,-88.3837890625,-90.6298828125,-93.4130859375,-95.2685546875,-97.6611328125,-100.3466796875,-102.1044921875,-104.1552734375,-106.6943359375,-108.4033203125,-110.0146484375,-111.3818359375,-108.0126953125,-103.9599609375,-99.9560546875,-96.7822265625,-93.9013671875,-91.0205078125,-89.2626953125,-89.6044921875,-90.1416015625,-90.7763671875,-91.4111328125,-92.1435546875,-93.9501953125,-94.8779296875,-97.2705078125,-98.9306640625,-100.8837890625,-102.7880859375,-105.3759765625,-107.5244140625,-109.6240234375,-109.1845703125,-105.8154296875,-102.7392578125,-100.1513671875,-97.6123046875,-95.7568359375,-94.7314453125,-93.6083984375,-93.9501953125,-95.1220703125,-96.5380859375,-97.1728515625,-97.6123046875,-99.8095703125,-101.1767578125,-103.3740234375,-104.9853515625,-106.2060546875,-108.6962890625,-110.9423828125,-113.2861328125,-115.2392578125,-113.2861328125,-109.7705078125,-106.3525390625,-103.6181640625,-100.3466796875,-97.2705078125,-95.3662109375,-93.7060546875,-94.4384765625,-95.0732421875,-95.9521484375,-96.5869140625,-96.9775390625,-98.6376953125,-99.8095703125,-101.5673828125,-102.9833984375,-104.9365234375,-106.8408203125,-108.7939453125,-110.5517578125,-112.6513671875,-112.8466796875,-108.7451171875,-105.9130859375,-102.6416015625,-98.9306640625,-97.1240234375,-95.1708984375,-93.6083984375,-94.4873046875,-96.2451171875,-97.6611328125,-98.1982421875,-100.9326171875,-102.3974609375,-104.4970703125,-106.8896484375,-108.3056640625,-110.9912109375,-112.4072265625,-114.0673828125,-116.5087890625,-118.6083984375,-119.2919921875,-116.4111328125,-112.3583984375,-108.4521484375,-104.8876953125,-101.2255859375,-98.9794921875,-96.9287109375,-97.1240234375,-98.1494140625,-99.0771484375,-99.9560546875,-101.6162109375,-103.2275390625,-104.3994140625,-106.6455078125,-108.4521484375,-110.8935546875,-112.6513671875,-114.7509765625,-116.1181640625,-118.4130859375,-119.2431640625,-117.0458984375,-113.2373046875,-109.4775390625,-106.1572265625,-103.9599609375,-100.8837890625,-99.3212890625,-98.1494140625,-99.8095703125,-100.0537109375,-100.8837890625,-102.0556640625,-102.9833984375,-104.6435546875,-105.9619140625,-107.5244140625,-108.5986328125,-110.4052734375,-112.2607421875,-113.9697265625,-115.2880859375,-116.8017578125,-114.6044921875,-110.4541015625,-106.3525390625,-103.5693359375,-99.7119140625,-97.3193359375,-94.7802734375,-94.4384765625,-95.7568359375,-96.8310546875,-97.6123046875,-99.4189453125,-101.1767578125,-102.2021484375,-104.0087890625,-104.9853515625,-107.0361328125,-108.4521484375,-109.7216796875,-111.5283203125,-114.0673828125,-115.9716796875,-115.6787109375,-111.4794921875,-107.6708984375,-103.7158203125,-100.4443359375,-98.1982421875,-95.8056640625,-94.0478515625,-94.7802734375,-96.0009765625,-97.1728515625,-98.3935546875,-99.7119140625,-101.3720703125,-102.9345703125,-105.3759765625,-107.0361328125,-109.4775390625,-110.8447265625,-113.5302734375,-116.2646484375,-117.7783203125,-118.5595703125,-114.7998046875,-111.5771484375,-109.1357421875,-106.3037109375,-103.4228515625,-101.1767578125,-100.2978515625,-100.6884765625,-101.6162109375,-102.2021484375,-102.9833984375,-103.9599609375,-105.5712890625,-106.5966796875,-108.2080078125,-109.0869140625,-111.1376953125,-111.5771484375,-114.1650390625,-116.0205078125,-116.6552734375,-115.0439453125,-110.6005859375,-106.5478515625,-102.9833984375,-99.5654296875,-96.0009765625,-93.4619140625,-91.7529296875,-92.0458984375,-93.2177734375,-93.9990234375,-93.9013671875,-95.1708984375,-96.0986328125,-97.7099609375,-99.5654296875,-101.5185546875,-103.0322265625,-104.5947265625,-106.7431640625,-108.7451171875,-108.7451171875,-107.7197265625,-103.7158203125,-99.8095703125,-95.8544921875,-92.1923828125,-89.6044921875,-87.3583984375,-87.0654296875,-87.7490234375,-88.5302734375,-89.7021484375,-91.0693359375,-92.7783203125,-94.2431640625,-96.5380859375,-99.0771484375,-100.4931640625,-103.2275390625,-104.6923828125,-107.5732421875,-109.8193359375,-111.0400390625,-110.0634765625,-106.2548828125,-102.0068359375,-97.7099609375,-94.8779296875,-91.0205078125,-89.0673828125,-87.5048828125,-89.2138671875,-89.8486328125,-91.3134765625,-92.9736328125,-94.1455078125,-96.3916015625,-97.5634765625,-100.0537109375,-101.6162109375,-102.9833984375,-105.4736328125,-108.0126953125,-108.9892578125,-109.4287109375,-105.9619140625,-102.2509765625,-99.0283203125,-95.8544921875,-92.6806640625,-90.2392578125,-88.0908203125,-87.8955078125,-88.9208984375,-89.6533203125,-90.6787109375,-92.0947265625,-93.7548828125,-96.4892578125,-98.0517578125,-99.2724609375,-101.7626953125,-103.9111328125,-105.7177734375,-107.3291015625,-108.4521484375,-106.7431640625,-102.5927734375,-98.2470703125,-94.6826171875,-91.1181640625,-87.2119140625,-84.8193359375,-82.9638671875,-83.6474609375,-83.1591796875,-84.1357421875,-84.7705078125,-86.3818359375,-87.3583984375,-89.4580078125,-90.6298828125,-92.4365234375,-93.2666015625,-94.9267578125,-97.0751953125,-97.8564453125,-97.7587890625,-95.2685546875,-90.7763671875,-87.1142578125,-84.2333984375,-80.8154296875,-77.8369140625,-76.0791015625,-76.1767578125,-77.1533203125,-78.2275390625,-79.7900390625,-81.5966796875,-83.3056640625,-85.6005859375,-88.1396484375,-90.3369140625,-92.2412109375,-94.1943359375,-96.1962890625,-98.4423828125,-99.9072265625,-99.6630859375,-96.3916015625,-92.9736328125,-89.7021484375,-86.0400390625,-83.2568359375,-81.6943359375,-80.9619140625,-81.7919921875,-83.0615234375,-84.1845703125,-85.9423828125,-87.3095703125,-88.4814453125,-90.3369140625,-91.8017578125,-93.7060546875,-95.7080078125,-96.8798828125,-99.1748046875,-100.7861328125,-101.2255859375,-99.9560546875,-95.8056640625,-92.1435546875,-88.6767578125,-85.1123046875,-83.3544921875,-81.0107421875,-80.0830078125,-81.5966796875,-83.2568359375,-84.5751953125,-85.6494140625,-86.3818359375,-87.9931640625,-89.9951171875,-91.8505859375,-93.7548828125,-94.4384765625,-96.3427734375,-98.3447265625,-100.1025390625,-99.9072265625,-96.8310546875,-92.9736328125,-88.1396484375,-85.5517578125,-80.7666015625,-78.6669921875,-76.3232421875,-75.2490234375,-77.4951171875,-77.8369140625,-79.3505859375,-81.2548828125,-83.2080078125,-85.3564453125,-87.4560546875,-89.9462890625,-92.3876953125,-94.1455078125,-97.0263671875,-99.0283203125,-100.6884765625,-101.2255859375,-97.6123046875,-93.4130859375,-90.2392578125,-85.1123046875,-81.9873046875,-78.9599609375,-77.0068359375,-77.5927734375,-80.2294921875,-80.4248046875,-82.6220703125,-84.2822265625,-86.0888671875,-88.3837890625,-91.3623046875,-94.4873046875,-96.7822265625,-98.9306640625,-101.3232421875,-104.5458984375,-105.8642578125,-106.4501953125,-103.4228515625,-99.3212890625,-96.3916015625,-93.4619140625,-91.1669921875,-88.7255859375,-87.2607421875,-87.2119140625,-88.4326171875,-88.7744140625,-88.9208984375,-89.7509765625,-91.0205078125,-93.3154296875,-94.9267578125,-96.9287109375,-99.1259765625,-101.1767578125,-103.5205078125,-105.4248046875,-107.7197265625,-106.6455078125,-102.4462890625,-99.7607421875,-97.1728515625,-93.3154296875,-90.1416015625,-88.2373046875,-86.2353515625,-87.4072265625,-87.7490234375,-88.3837890625,-89.8486328125,-90.6787109375,-91.3134765625,-92.6318359375,-94.7314453125,-96.6357421875,-98.9794921875,-99.9072265625,-101.7138671875,-103.9599609375,-104.2529296875,-104.2529296875,-100.3955078125,-95.9521484375,-91.3623046875,-87.6513671875,-83.6474609375,-80.8642578125,-77.9833984375,-77.6416015625,-77.8857421875,-79.2041015625,-79.4482421875,-80.5224609375,-82.5732421875,-84.6728515625,-86.8701171875,-89.0185546875,-91.0205078125,-92.3388671875,-94.5361328125,-96.6845703125,-99.2236328125,-99.9072265625,-97.9052734375,-93.8525390625,-90.5322265625,-86.8212890625,-83.1103515625,-79.2041015625,-76.2255859375,-75.4931640625,-76.2744140625,-77.3486328125,-77.8857421875,-79.3994140625,-81.3037109375,-83.5009765625,-85.9912109375,-89.1162109375,-91.3134765625,-93.5595703125,-95.7568359375,-98.5400390625,-101.4208984375,-103.6181640625,-103.7158203125,-99.5166015625,-96.2451171875,-93.4619140625,-91.3623046875,-88.9208984375,-86.8212890625,-85.6982421875,-85.6494140625,-86.3330078125,-87.4560546875,-87.8955078125,-88.4814453125,-89.7998046875,-91.6552734375,-93.8037109375,-94.9267578125,-97.6123046875,-99.2724609375,-101.5673828125,-103.5693359375,-104.3994140625,-102.1044921875,-98.2470703125,-95.0244140625,-92.5341796875,-89.2138671875,-87.3583984375,-85.6494140625,-85.0146484375,-85.1123046875,-85.7958984375,-86.4306640625,-87.1142578125,-87.8466796875,-88.2861328125,-89.6044921875,-91.1181640625,-92.5341796875,-94.0478515625,-96.0009765625,-98.2470703125,-99.6142578125,-99.7607421875,-96.1962890625,-92.3388671875,-88.4814453125,-85.1611328125,-81.9384765625,-79.9365234375,-77.9833984375,-77.4951171875,-78.0810546875,-79.9853515625,-80.9619140625,-82.4755859375,-83.6962890625,-86.4306640625,-87.6513671875,-90.4833984375,-93.2177734375,-94.9755859375,-97.2216796875,-100.1513671875,-103.1787109375,-102.5439453125,-99.1748046875,-95.9033203125,-92.8271484375,-90.9228515625,-88.7744140625,-86.5771484375,-85.9423828125,-85.3564453125,-87.3095703125,-88.0419921875,-89.1162109375,-90.8251953125,-92.4365234375,-94.3408203125,-96.7333984375,-98.1982421875,-100.1513671875,-102.1044921875,-104.2041015625,-107.4755859375,-108.7451171875,-105.7177734375,-102.5927734375,-99.7607421875,-96.3427734375,-93.1689453125,-91.3134765625,-89.0185546875,-88.8232421875,-90.3857421875,-90.8740234375,-93.3642578125,-94.7802734375,-95.9521484375,-98.0517578125,-99.5166015625,-101.6162109375,-103.7646484375,-105.7666015625,-108.5986328125,-110.0146484375,-110.9912109375,-108.6474609375,-104.2041015625,-100.2001953125,-97.1728515625,-94.0966796875,-90.9716796875,-88.5302734375,-88.1396484375,-88.9697265625,-89.3603515625,-90.8251953125,-91.9970703125,-93.0712890625,-95.1708984375,-96.8798828125,-98.8818359375,-101.5185546875,-102.6416015625,-104.8876953125,-107.5244140625,-108.8427734375,-107.0361328125,-102.4951171875,-99.8095703125,-95.2685546875,-92.6318359375,-89.6044921875,-87.5537109375,-85.3076171875,-85.6982421875,-86.0888671875,-85.6005859375,-87.7490234375,-89.7021484375,-90.4833984375,-93.4619140625,-95.7080078125,-97.2216796875,-99.1748046875,-101.1767578125,-103.4716796875,-104.8388671875,-104.4970703125,-100.5419921875,-96.5869140625,-93.6083984375,-89.4091796875,-86.2353515625,-83.5498046875,-81.5966796875,-81.3037109375,-83.2568359375,-83.5986328125,-84.8193359375,-85.6494140625,-87.9443359375,-89.5556640625,-92.2412109375,-94.3408203125,-96.7333984375,-98.5400390625,-100.4443359375,-101.7138671875,-102.2509765625,-98.9794921875,-94.1455078125,-90.5322265625,-86.5283203125,-82.8662109375,-79.7412109375,-77.8857421875,-77.2509765625,-78.1298828125,-78.7158203125,-79.3505859375,-80.0341796875,-82.5244140625,-84.1845703125,-86.7236328125,-89.5068359375,-91.4599609375,-94.0478515625,-96.6845703125,-98.4912109375,-98.5888671875,-96.6357421875,-92.6318359375,-89.9462890625,-86.1376953125,-83.1591796875,-80.1318359375,-78.5693359375,-77.8857421875,-78.7646484375,-79.2529296875,-80.6689453125,-82.6220703125,-84.6240234375,-86.4306640625,-88.3837890625,-90.6298828125,-92.9248046875,-94.4873046875,-97.5146484375,-99.2236328125,-99.0771484375,-96.5380859375,-92.4853515625,-89.7998046875,-85.9423828125,-81.9384765625,-79.4482421875,-77.6904296875,-77.1533203125,-78.0810546875,-79.4482421875,-80.9619140625,-83.4033203125,-84.8193359375,-86.4306640625,-88.8720703125,-91.0205078125,-93.1689453125,-95.4638671875,-97.3193359375,-99.2236328125,-100.1513671875,-96.9775390625,-93.1689453125,-89.6044921875,-86.5283203125,-83.3056640625,-81.5478515625,-80.8642578125,-81.1572265625,-83.1103515625,-84.7705078125,-86.2841796875,-88.2861328125,-89.6044921875,-91.9482421875,-94.3408203125,-96.5869140625,-98.3935546875,-100.5419921875,-102.2509765625,-104.5458984375,-106.0107421875,-103.6669921875,-99.6142578125,-96.1962890625,-92.9248046875,-90.0927734375,-87.7978515625,-85.3564453125,-85.6005859375,-86.7724609375,-87.5048828125,-88.0419921875,-89.4091796875,-91.7041015625,-93.6572265625,-96.7333984375,-98.8818359375,-100.1513671875,-102.1533203125,-105.4248046875,-106.5966796875,-107.1826171875,-104.7412109375,-100.5419921875,-97.4169921875,-95.0732421875,-91.7041015625,-88.6279296875,-86.7724609375,-86.7236328125,-88.3349609375,-89.2138671875,-89.9462890625,-90.8251953125,-93.4130859375,-95.2197265625,-97.7099609375,-99.1259765625,-101.2744140625,-103.2275390625,-104.9853515625,-107.3291015625,-106.4501953125,-104.1064453125,-99.5654296875,-94.5361328125,-90.6298828125,-86.1376953125,-83.3544921875,-81.4013671875,-80.1806640625,-81.8408203125,-83.5009765625,-84.8193359375,-85.7958984375,-88.6767578125,-91.1669921875,-92.9736328125,-95.8544921875,-97.8076171875,-100.0537109375,-102.5927734375,-104.0087890625,-105.2294921875,-102.0556640625,-98.7353515625,-93.9501953125,-90.1904296875,-86.7724609375,-84.4775390625,-83.2080078125,-83.1591796875,-85.0634765625,-85.7470703125,-86.8701171875,-88.1396484375,-90.2880859375,-92.8759765625,-95.1220703125,-97.5146484375,-100.1025390625,-101.7138671875,-103.9111328125,-106.4501953125,-109.1357421875,-107.2314453125,-102.7392578125,-99.4189453125,-96.0009765625,-92.9248046875,-90.4833984375,-88.1396484375,-87.4560546875,-88.0908203125,-89.0185546875,-89.6533203125,-90.2392578125,-92.3876953125,-95.3173828125,-97.8564453125,-99.7119140625,-102.1533203125,-104.9365234375,-107.6220703125,-110.5029296875,-112.6025390625,-110.6005859375,-106.0107421875,-103.3251953125,-100.3466796875,-96.4892578125,-93.0712890625,-90.2392578125,-89.2626953125,-90.1904296875,-90.8740234375,-91.5576171875,-92.0458984375,-93.6083984375,-96.1962890625,-98.1005859375,-99.8583984375,-101.2744140625,-102.4951171875,-104.7412109375,-106.0595703125,-107.3291015625,-105.6201171875,-100.9814453125,-97.7099609375,-93.8525390625,-90.2880859375,-86.9677734375,-84.3310546875,-83.3544921875,-83.6474609375,-85.5517578125,-86.9677734375,-88.4326171875,-91.4111328125,-93.2666015625,-94.9755859375,-97.3193359375,-99.8583984375,-101.6650390625,-104.3017578125,-106.2060546875,-108.5009765625,-108.2080078125,-103.9111328125,-101.3232421875,-97.4169921875,-95.1708984375,-92.0947265625,-90.0927734375,-88.6279296875,-89.1162109375,-89.7509765625,-90.4833984375,-91.8017578125,-93.5107421875,-94.9267578125,-97.5146484375,-100.4443359375,-101.9580078125,-103.7158203125,-105.2783203125,-107.9638671875,-109.8681640625,-110.5517578125,-106.2548828125,-102.8857421875,-99.3212890625,-96.8310546875,-93.7060546875,-90.2880859375,-89.2138671875,-88.9697265625,-90.1416015625,-90.5810546875,-92.2900390625,-93.5107421875,-95.5126953125,-98.1982421875,-99.9560546875,-101.4208984375,-104.3505859375,-105.4736328125,-108.7451171875,-109.8681640625,-110.8447265625,-107.6708984375,-103.4228515625,-100.2490234375,-96.2939453125,-92.9736328125,-90.0439453125,-87.8955078125,-86.9189453125,-87.9443359375,-88.1396484375,-89.4580078125,-91.0205078125,-92.0947265625,-94.3408203125,-96.9287109375,-99.1748046875,-100.9814453125,-102.6416015625,-105.1806640625,-107.6708984375,-108.3544921875,-106.5478515625,-101.7626953125,-97.8564453125,-93.6572265625,-89.7509765625,-86.5771484375,-84.0380859375,-83.4033203125,-84.1357421875,-85.6982421875,-86.8212890625,-88.7255859375,-90.7275390625,-92.2900390625,-94.9755859375,-96.0986328125,-98.3447265625,-101.5673828125,-104.3017578125,-106.7919921875,-108.7451171875,-109.1845703125,-103.7646484375,-99.4189453125,-95.1220703125,-91.8017578125,-88.7255859375,-86.5771484375,-84.8681640625,-85.7958984375,-86.8701171875,-87.9443359375,-89.1650390625,-90.3369140625,-91.9970703125,-92.9248046875,-95.6591796875,-96.8310546875,-98.4912109375,-101.0302734375,-102.7392578125,-105.6201171875,-105.5712890625,-100.9814453125,-96.9775390625,-93.2666015625,-89.9462890625,-87.3583984375,-85.1611328125,-83.7939453125,-84.1357421875,-85.5029296875,-85.5029296875,-86.3818359375,-88.0419921875,-90.3857421875,-91.8994140625,-93.9990234375,-96.1962890625,-97.5146484375,-99.2236328125,-100.5908203125,-101.8603515625,-101.4208984375,-97.5634765625,-93.2666015625,-89.0673828125,-85.0634765625,-81.0595703125,-77.8857421875,-75.0048828125,-74.1748046875,-74.1748046875,-74.6142578125,-76.0791015625,-77.3486328125,-79.1552734375,-80.9130859375,-82.0849609375,-85.2099609375,-87.3095703125,-89.3603515625,-92.1923828125,-94.3896484375,-94.0478515625,-90.5810546875,-87.3095703125,-83.7939453125,-80.9130859375,-77.2021484375,-74.8583984375,-73.6865234375,-73.7353515625,-75.8837890625,-77.4951171875,-79.1064453125,-81.8896484375,-84.1357421875,-85.8447265625,-88.3837890625,-91.0205078125,-94.0478515625,-96.5380859375,-100.3466796875,-102.7392578125,-104.2529296875,-101.0791015625,-97.4658203125,-94.6337890625,-91.5087890625,-89.1162109375,-87.0166015625,-86.6748046875,-86.7724609375,-89.2138671875,-90.8251953125,-92.9248046875,-94.5849609375,-95.9521484375,-97.5146484375,-98.3447265625,-100.7861328125,-101.9091796875,-102.9833984375,-104.3994140625,-106.4013671875,-105.1318359375,-101.1279296875,-96.6845703125,-91.9970703125,-88.4326171875,-86.1376953125,-82.9638671875,-81.3525390625,-81.5478515625,-82.0849609375,-83.2080078125,-83.4033203125,-84.2822265625,-85.3564453125,-86.5771484375,-87.8466796875,-89.6533203125,-91.0205078125,-92.9248046875,-94.5849609375,-94.9267578125,-91.4111328125,-86.9677734375,-82.0849609375,-78.2763671875,-74.8583984375,-71.5869140625,-69.5849609375,-68.3642578125,-70.3173828125,-71.4892578125,-72.5146484375,-73.5400390625,-75.5908203125,-76.8115234375,-79.0576171875,-81.0595703125,-83.0615234375,-84.7705078125,-86.5771484375,-88.5791015625,-88.9208984375,-84.8681640625,-80.3759765625,-75.9326171875,-70.9033203125,-67.3388671875,-64.3603515625,-61.4794921875,-61.2353515625,-62.6513671875,-63.6279296875,-65.3857421875,-67.6806640625,-69.5849609375,-72.3193359375,-75.0537109375,-76.6650390625,-79.8388671875,-82.1337890625,-85.1123046875,-87.9931640625,-88.1396484375,-84.1357421875,-80.2294921875,-77.0556640625,-73.5400390625,-70.8544921875,-68.5595703125,-66.5576171875,-67.4853515625,-69.2919921875,-70.5126953125,-72.8564453125,-74.8095703125,-77.9833984375,-80.0341796875,-81.7919921875,-84.7216796875,-87.8466796875,-89.8486328125,-93.2666015625,-96.0009765625,-94.4384765625,-90.0927734375,-86.9677734375,-83.4033203125,-80.3759765625,-77.9833984375,-76.1767578125,-75.7373046875,-77.4951171875,-79.5947265625,-80.4736328125,-83.0126953125,-84.6240234375,-87.5537109375,-89.8974609375,-93.0224609375,-96.0009765625,-99.0771484375,-101.9580078125,-104.4970703125,-106.3037109375,-101.4697265625,-98.1005859375,-94.4384765625,-91.7041015625,-87.8955078125,-84.5751953125,-82.4755859375,-81.4501953125,-81.8896484375,-81.7919921875,-82.7197265625,-83.8916015625,-84.3798828125,-86.4306640625,-88.0419921875,-90.1904296875,-91.4599609375,-94.5361328125,-96.9775390625,-99.4677734375,-98.7353515625,-95.0244140625,-91.3134765625,-87.7978515625,-84.1357421875,-80.0341796875,-77.4951171875,-74.0771484375,-73.6865234375,-74.9072265625,-75.0537109375,-76.1767578125,-78.6181640625,-79.6435546875,-82.5244140625,-85.4541015625,-88.3349609375,-90.6298828125,-92.7294921875,-95.0732421875,-97.3193359375,-97.3681640625,-92.2900390625,-88.5302734375,-84.6240234375,-80.9130859375,-77.8369140625,-74.4189453125,-71.4892578125,-71.3427734375,-71.4404296875,-72.2705078125,-72.9052734375,-72.9541015625,-74.5654296875,-75.8349609375,-76.7626953125,-78.3740234375,-79.3505859375,-81.7431640625,-83.5498046875,-85.2587890625,-85.1123046875,-80.3271484375,-76.1767578125,-72.7587890625,-69.9755859375,-67.5341796875,-65.6298828125,-63.8232421875,-65.7763671875,-68.6083984375,-69.9267578125,-71.7333984375,-73.8330078125,-75.4931640625,-77.9833984375,-79.9365234375,-82.6708984375,-84.6728515625,-86.4794921875,-88.9697265625,-89.8974609375,-87.9931640625,-83.4033203125,-79.0576171875,-76.0791015625,-72.8564453125,-69.6826171875,-68.1689453125,-67.9248046875,-69.4384765625,-71.0986328125,-72.0751953125,-73.9794921875,-75.0537109375,-77.3486328125,-78.4716796875,-80.1806640625,-82.4755859375,-83.7451171875,-85.7958984375,-87.2119140625,-88.2373046875,-84.9658203125,-80.6689453125,-75.5419921875,-72.6123046875,-68.3642578125,-65.1904296875,-63.5302734375,-63.5302734375,-65.2880859375,-67.2412109375,-69.0966796875,-71.9775390625,-74.4677734375,-78.3251953125,-81.1083984375,-84.2333984375,-87.4072265625,-90.0927734375,-93.0224609375,-95.3173828125,-96.9287109375,-93.4619140625,-89.3603515625,-86.6259765625,-84.2822265625,-81.4013671875,-79.4970703125,-78.1298828125,-78.2275390625,-79.7412109375,-80.9619140625,-82.7197265625,-84.7705078125,-85.7470703125,-87.9931640625,-89.7021484375,-91.8505859375,-93.7548828125,-95.0732421875,-96.6845703125,-98.5400390625,-98.7841796875,-94.6337890625,-90.6298828125,-87.6025390625,-84.0380859375,-81.3525390625,-79.2529296875,-77.5927734375,-78.3251953125,-80.0830078125,-81.1572265625,-83.0615234375,-84.1357421875,-85.7470703125,-87.2607421875,-88.4814453125,-89.7998046875,-90.6787109375,-91.9482421875,-92.9248046875,-93.8037109375,-91.8017578125,-85.7958984375,-82.3291015625,-78.1787109375,-73.0517578125,-68.9501953125,-65.9228515625,-65.0439453125,-66.2158203125,-67.3876953125,-68.4130859375,-70.6103515625,-72.9052734375,-74.9072265625,-77.7392578125,-80.0341796875,-82.2802734375,-85.2099609375,-87.7978515625,-88.8720703125,-89.6044921875,-86.8701171875,-82.6708984375,-78.8623046875,-76.3232421875,-72.7587890625,-69.7802734375,-68.6572265625,-69.5849609375,-71.7822265625,-73.1982421875,-75.8349609375,-78.2763671875,-81.0107421875,-84.5751953125,-87.9931640625,-90.7763671875,-94.4384765625,-98.1494140625,-101.0791015625,-103.7646484375,-105.8642578125,-102.1533203125,-97.9541015625,-95.3662109375,-92.2412109375,-89.0185546875,-87.0166015625,-85.2587890625,-85.6982421875,-86.5283203125,-87.8466796875,-88.8720703125,-91.0693359375,-91.7529296875,-93.3642578125,-96.2451171875,-98.3447265625,-100.5419921875,-102.6904296875,-105.0341796875,-106.7919921875,-104.8388671875,-100.2001953125,-96.6845703125,-93.5595703125,-90.7275390625,-87.6513671875,-86.1865234375,-85.2099609375,-85.4541015625,-86.6259765625,-88.0419921875,-89.8486328125,-91.6552734375,-93.7548828125,-95.6103515625,-97.9052734375,-99.7607421875,-101.5673828125,-103.9111328125,-105.7177734375,-105.4736328125,-101.8603515625,-97.9052734375,-93.7060546875,-89.5556640625,-85.7958984375,-83.4033203125,-80.5712890625,-79.9365234375,-80.2783203125,-80.7666015625,-82.1337890625,-82.5244140625,-84.8681640625,-85.9912109375,-87.4072265625,-89.6533203125,-92.3876953125,-94.0478515625,-96.1962890625,-97.9541015625,-96.2939453125,-92.8271484375,-87.9931640625,-83.9404296875,-79.3017578125,-77.1044921875,-74.4677734375,-72.5634765625,-74.3701171875,-74.8583984375,-75.5908203125,-77.8857421875,-79.3017578125,-81.9873046875,-83.6962890625,-85.1611328125,-87.8955078125,-91.2646484375,-93.0712890625,-96.2451171875,-99.1259765625,-96.9287109375,-91.8505859375,-89.3603515625,-85.6982421875,-82.5732421875,-81.1083984375,-79.1064453125,-78.5205078125,-80.5224609375,-82.4267578125,-84.9169921875,-86.3330078125,-89.1162109375,-91.1181640625,-94.5849609375,-97.2705078125,-99.8095703125,-101.6650390625,-105.3759765625,-107.0849609375,-108.9404296875,-105.4248046875,-100.9814453125,-97.9541015625,-95.1220703125,-92.5341796875,-89.2138671875,-86.3818359375,-85.2587890625,-85.7958984375,-86.3330078125,-88.0908203125,-88.7744140625,-90.8251953125,-92.8759765625,-94.2431640625,-97.5634765625,-99.5166015625,-101.5673828125,-104.7412109375,-106.8896484375,-106.4990234375,-102.4951171875,-98.0517578125,-94.4384765625,-90.6298828125,-86.2353515625,-82.0849609375,-79.1552734375,-77.9833984375,-78.2763671875,-78.6181640625,-79.2529296875,-79.8876953125,-81.9873046875,-83.9892578125,-86.2841796875,-88.6767578125,-91.4111328125,-94.6337890625,-97.5146484375,-99.5166015625,-99.1259765625,-95.4150390625,-92.4853515625,-89.0673828125,-86.2841796875,-84.1357421875,-81.4990234375,-81.7431640625,-83.7939453125,-85.9912109375,-87.7978515625,-89.9462890625,-91.8994140625,-94.9267578125,-97.3681640625,-99.7119140625,-103.5205078125,-106.2060546875,-109.2333984375,-112.2119140625,-114.5556640625,-114.4091796875,-110.5517578125,-107.8662109375,-104.3994140625,-101.6162109375,-98.9794921875,-98.0029296875,-98.2958984375,-101.1279296875,-102.8369140625,-104.1064453125,-106.4013671875,-109.9169921875,-111.3330078125,-113.0908203125,-115.1416015625,-119.0478515625,-120.6591796875,-123.0517578125,-125.2490234375,-125.3466796875,-122.6123046875,-118.9013671875,-115.5810546875,-111.0400390625,-109.1357421875,-106.6455078125,-104.9365234375,-103.6181640625,-105.4248046875,-104.6435546875,-106.0107421875,-106.8896484375,-107.8173828125,-109.3310546875,-111.1865234375,-113.3349609375,-114.8974609375,-116.8017578125,-118.5107421875,-120.0244140625,-118.9013671875,-113.9697265625,-110.0146484375,-105.4736328125,-100.8837890625,-97.6123046875,-93.2666015625,-90.8251953125,-91.1181640625,-90.9716796875,-90.5810546875,-91.5576171875,-91.6064453125,-93.1201171875,-94.6337890625,-97.4658203125,-98.6865234375,-100.5419921875,-102.8369140625,-104.8388671875,-106.1572265625,-104.2529296875,-98.9306640625,-95.8056640625,-91.4111328125,-86.9189453125,-82.2314453125,-77.8857421875,-75.4443359375,-74.3212890625,-74.3212890625,-75.0048828125,-76.0302734375,-76.7138671875,-79.1064453125,-80.5224609375,-82.2802734375,-84.3310546875,-87.5537109375,-89.3115234375,-92.2900390625,-94.2431640625,-95.0244140625,-92.3876953125,-88.1884765625,-84.7216796875,-79.9853515625,-75.1025390625,-71.0009765625,-68.9013671875,-67.5830078125,-69.0966796875,-70.8544921875,-73.1494140625,-75.8837890625,-77.2509765625,-81.5478515625,-84.4287109375,-87.0654296875,-90.6298828125,-93.2177734375,-96.5380859375,-100.5908203125,-103.1298828125,-104.2041015625,-99.9072265625,-96.7822265625,-93.9990234375,-90.9716796875,-89.4580078125,-87.8955078125,-87.3583984375,-88.5791015625,-89.9951171875,-91.7041015625,-93.4130859375,-95.0244140625,-96.5380859375,-99.2236328125,-101.4208984375,-103.0322265625,-106.0595703125,-107.3779296875,-109.4775390625,-112.1630859375,-112.0166015625,-108.7451171875,-104.3505859375,-101.3232421875,-96.9775390625,-93.2177734375,-90.1416015625,-87.9443359375,-86.9677734375,-87.7001953125,-88.8720703125,-89.7509765625,-90.1416015625,-91.5087890625,-93.4619140625,-96.0498046875,-97.7587890625,-100.1513671875,-103.1298828125,-105.8154296875,-108.1591796875,-109.8193359375,-107.2802734375,-103.1787109375,-99.1259765625,-95.3173828125,-91.8994140625,-87.9443359375,-85.2099609375,-83.6474609375,-83.3056640625,-83.4033203125,-83.9892578125,-85.2099609375,-86.9189453125,-89.6044921875,-91.5576171875,-93.9013671875,-96.2451171875,-99.5166015625,-101.8115234375,-104.3017578125,-107.0849609375,-108.1103515625,-103.7646484375,-100.2978515625,-96.5869140625,-92.9248046875,-90.5322265625,-87.5537109375,-84.8193359375,-83.6474609375,-83.8916015625,-84.9658203125,-85.9423828125,-87.2119140625,-89.7509765625,-92.7783203125,-95.3173828125,-99.1259765625,-101.5185546875,-104.1552734375,-107.1826171875,-109.6240234375,-112.4560546875,-113.2373046875,-109.8193359375,-105.8642578125,-102.2509765625,-99.0771484375,-96.6845703125,-94.5361328125,-92.8759765625,-93.1201171875,-95.0244140625,-96.1474609375,-97.1240234375,-96.9287109375,-99.0771484375,-100.3466796875,-102.3486328125,-104.2041015625,-105.3759765625,-106.7919921875,-108.9892578125,-111.3330078125,-111.9677734375,-110.5029296875,-105.7666015625,-103.2763671875,-99.5166015625,-96.4892578125,-94.2919921875,-91.8505859375,-91.1181640625,-93.2177734375,-93.5595703125,-94.6337890625,-95.7080078125,-97.2705078125,-99.3212890625,-101.0302734375,-102.2509765625,-104.2041015625,-105.6201171875,-107.6708984375,-110.6005859375,-111.3330078125,-111.8701171875,-108.0615234375,-103.4228515625,-99.3701171875,-94.6337890625,-91.3623046875,-87.7978515625,-84.5751953125,-82.8662109375,-83.1103515625,-82.5732421875,-82.7685546875,-82.5244140625,-83.3544921875,-85.3564453125,-86.5283203125,-88.3349609375,-90.1416015625,-91.4599609375,-93.3642578125,-96.0498046875,-98.2958984375,-98.3447265625,-94.0478515625,-90.7275390625,-86.0400390625,-82.3779296875,-79.3017578125,-76.8115234375,-74.8095703125,-75.2001953125,-76.5185546875,-77.2998046875,-77.7392578125,-79.2041015625,-82.0361328125,-83.8916015625,-86.3330078125,-88.9208984375,-92.1435546875,-93.9013671875,-96.0498046875,-99.1748046875,-101.5673828125,-103.1787109375,-101.2255859375,-96.5380859375,-93.3154296875,-90.4833984375,-87.4560546875,-84.5263671875,-82.6220703125,-82.4267578125,-82.9638671875,-84.2333984375,-85.4541015625,-86.0400390625,-87.9443359375,-89.7509765625,-91.7529296875,-93.9013671875,-96.0009765625,-97.7099609375,-100.0537109375,-101.4208984375,-103.4228515625,-105.0830078125,-103.0322265625,-98.8818359375,-94.8779296875,-90.9716796875,-87.3095703125,-83.6474609375,-80.5712890625,-78.6669921875,-79.1552734375,-79.7900390625,-80.6689453125,-81.6943359375,-82.6708984375,-84.1357421875,-85.3076171875,-87.0654296875,-88.5791015625,-90.6787109375,-91.9970703125,-93.6572265625,-96.2451171875,-96.5380859375,-95.3173828125,-91.0205078125,-86.0400390625,-83.0126953125,-78.1298828125,-73.8330078125,-69.5849609375,-67.4365234375,-65.8251953125,-66.3623046875,-66.2646484375,-66.9970703125,-67.2900390625,-68.5595703125,-69.1455078125,-71.3427734375,-72.4169921875,-74.6142578125,-76.2744140625,-78.3251953125,-80.9130859375,-82.3779296875,-82.6220703125,-78.4228515625,-74.8583984375,-70.5126953125,-66.8017578125,-62.7490234375,-59.2822265625,-57.2314453125,-57.5244140625,-59.8681640625,-61.9189453125,-63.8720703125,-67.3876953125,-69.4384765625,-72.6611328125,-75.5419921875,-78.1787109375,-81.1572265625,-83.7939453125,-86.2353515625,-88.6767578125,-91.6552734375,-93.5595703125,-90.8740234375,-85.1611328125,-81.3037109375,-78.4228515625,-75.4443359375,-71.4404296875,-69.2431640625,-69.3896484375,-70.8056640625,-72.0751953125,-73.4912109375,-74.9560546875,-76.6162109375,-79.5458984375,-82.2314453125,-84.8681640625,-86.9677734375,-89.0673828125,-91.3134765625,-94.3896484375,-97.1240234375,-98.2470703125,-95.2685546875,-90.1416015625,-87.5048828125,-83.4521484375,-80.5712890625,-77.9833984375,-75.0537109375,-74.9072265625,-76.1767578125,-76.4697265625,-78.1298828125,-79.3017578125,-79.8388671875,-82.3291015625,-83.7451171875,-85.4052734375,-87.5048828125,-89.1650390625,-91.1181640625,-93.6083984375,-94.5361328125,-94.6826171875,-91.3623046875,-87.0654296875,-82.7685546875,-78.8623046875,-74.2236328125,-70.1708984375,-66.6552734375,-64.5068359375,-63.8232421875,-64.4091796875,-64.6044921875,-64.2626953125,-65.7763671875,-66.9970703125,-69.6826171875,-71.0986328125,-73.6865234375,-75.2490234375,-77.5927734375,-80.1318359375,-82.0849609375,-84.0380859375,-81.9873046875,-77.1533203125,-73.5888671875,-69.9755859375,-66.2158203125,-62.9443359375,-59.6728515625,-58.0126953125,-59.1357421875,-59.5263671875,-60.8935546875,-63.2861328125,-65.3369140625,-68.1689453125,-70.7080078125,-73.4912109375,-76.2744140625,-79.7900390625,-82.1337890625,-85.4052734375,-88.5791015625,-90.4345703125,-87.6513671875,-83.2080078125,-80.3271484375,-78.1787109375,-74.3701171875,-73.4912109375,-71.0986328125,-71.0009765625,-72.6611328125,-74.1748046875,-75.5419921875,-77.3486328125,-79.5458984375,-82.5244140625,-84.3310546875,-87.4560546875,-89.4580078125,-92.2900390625,-94.5849609375,-96.3916015625,-99.5654296875,-98.7353515625,-93.5107421875,-89.9462890625,-86.4794921875,-82.5732421875,-79.1064453125,-76.0791015625,-72.7099609375,-72.4169921875,-73.1982421875,-72.6611328125,-73.3447265625,-74.1259765625,-75.4443359375,-77.2998046875,-78.3251953125,-80.2294921875,-82.0849609375,-83.4521484375,-85.9912109375,-87.9931640625,-88.0419921875,-84.1357421875,-80.2783203125,-76.6650390625,-72.4658203125,-68.1201171875,-64.7021484375,-61.4794921875,-60.0634765625,-60.5029296875,-60.4541015625,-61.7236328125,-63.1884765625,-64.6533203125,-67.3876953125,-69.5849609375,-72.2705078125,-75.5419921875,-77.5927734375,-80.9619140625,-83.5498046875,-84.9658203125,-84.5751953125,-79.3505859375,-75.7861328125,-71.9775390625,-68.0224609375,-64.6044921875,-61.2353515625,-59.4287109375,-59.5263671875,-61.4306640625,-60.7958984375,-62.5048828125,-64.7509765625,-67.0458984375,-70.0732421875,-73.8818359375,-76.8115234375,-80.4248046875,-84.0380859375,-86.3330078125,-89.4580078125,-91.0205078125,-90.4345703125,-85.1611328125,-82.3291015625,-79.6435546875,-76.3232421875,-74.5654296875,-72.1240234375,-71.2451171875,-72.3193359375,-73.9306640625,-74.6630859375,-76.5673828125,-78.7158203125,-80.1806640625,-83.0126953125,-85.6494140625,-88.4814453125,-90.2880859375,-92.8271484375,-95.7080078125,-97.5634765625,-98.6865234375,-94.5849609375,-91.0205078125,-87.9443359375,-84.2333984375,-81.0107421875,-78.7158203125,-76.0302734375,-75.1025390625,-75.0048828125,-76.3720703125,-78.0322265625,-78.9111328125,-79.8388671875,-82.5244140625,-84.4287109375,-85.9912109375,-88.2861328125,-90.2392578125,-92.1435546875,-94.8291015625,-95.5615234375,-94.5849609375,-89.9462890625,-86.0888671875,-82.0361328125,-77.3974609375,-74.2724609375,-70.4150390625,-66.7529296875,-65.4833984375,-65.4345703125,-66.3134765625,-67.6318359375,-69.0966796875,-70.3662109375,-73.0517578125,-75.4931640625,-77.8857421875,-80.3759765625,-83.4033203125,-85.6494140625,-88.7255859375,-90.5810546875,-89.4580078125,-84.6728515625,-81.5966796875,-77.1044921875,-74.8583984375,-71.9775390625,-70.1220703125,-69.7314453125,-71.5380859375,-73.3935546875,-75.8349609375,-78.2275390625,-80.5712890625,-83.5009765625,-86.6259765625,-90.1904296875,-93.6572265625,-97.5634765625,-100.3955078125,-103.3740234375,-106.8896484375,-107.2802734375,-103.2763671875,-99.6630859375,-97.3681640625,-93.5107421875,-92.0458984375,-91.1669921875,-90.0927734375,-91.6552734375,-93.3642578125,-94.2431640625,-94.3408203125,-95.0244140625,-96.2939453125,-98.0029296875,-98.8818359375,-100.3955078125,-102.1533203125,-103.7646484375,-105.9130859375,-108.1103515625,-107.4267578125,-103.5693359375,-98.4423828125,-96.0986328125,-91.8994140625,-89.0673828125,-86.4794921875,-83.7939453125,-82.5732421875,-83.9892578125,-84.1845703125,-83.3544921875,-85.1123046875,-85.7958984375,-86.5771484375,-88.3349609375,-90.9716796875,-91.7529296875,-94.1455078125,-96.2451171875,-97.7099609375,-98.8818359375,-95.2685546875,-90.7275390625,-87.0654296875,-82.1337890625,-78.1298828125,-73.8818359375,-70.8056640625,-68.1689453125,-68.3154296875,-68.8037109375,-68.7548828125,-69.8779296875,-71.4404296875,-73.0517578125,-74.5166015625,-76.9580078125,-79.1064453125,-81.5966796875,-84.8681640625,-87.1142578125,-90.5810546875,-91.5087890625,-88.3837890625,-83.8427734375,-81.0107421875,-76.3720703125,-72.6123046875,-68.9501953125,-65.8251953125,-64.6533203125,-65.3369140625,-65.6298828125,-67.0458984375,-67.7294921875,-69.4384765625,-72.2705078125,-74.8583984375,-77.6904296875,-80.5712890625,-84.0380859375,-87.0654296875,-89.8486328125,-93.3154296875,-94.1455078125,-93.6572265625,-88.5791015625,-85.2099609375,-81.3037109375,-77.9345703125,-74.4677734375,-72.6611328125,-71.0498046875,-72.0263671875,-74.0283203125,-74.7607421875,-76.7626953125,-76.7138671875,-79.4970703125,-81.9384765625,-84.2333984375,-86.3330078125,-88.8720703125,-91.1669921875,-93.2666015625,-95.7568359375,-98.1005859375,-96.9287109375,-91.4599609375,-87.6513671875,-84.8193359375,-81.5478515625,-77.8857421875,-75.2490234375,-74.4677734375,-74.7607421875,-74.9072265625,-75.1513671875,-76.8603515625,-77.7880859375,-80.2294921875,-81.7431640625,-84.4287109375,-86.6259765625,-87.5048828125,-89.2626953125,-90.9716796875,-92.9736328125,-94.5849609375,-94.2431640625,-90.0439453125,-85.8447265625,-81.5966796875,-77.1044921875,-73.9794921875,-70.6591796875,-66.7041015625,-65.9716796875,-66.2646484375,-66.8017578125,-66.8505859375,-67.7294921875,-69.3896484375,-71.1474609375,-73.3935546875,-76.3720703125,-78.1298828125,-80.5224609375,-83.1591796875,-85.6005859375,-88.2373046875,-90.3857421875,-90.4833984375,-86.0888671875,-81.3525390625,-77.8857421875,-73.8818359375,-69.8779296875,-66.0205078125,-63.8720703125,-62.3095703125,-62.9931640625,-63.6767578125,-64.6044921875,-65.9716796875,-68.7548828125,-70.0732421875,-72.5634765625,-76.5673828125,-79.7900390625,-82.4755859375,-86.0400390625,-89.7509765625,-92.2412109375,-94.8779296875,-96.8310546875,-94.4384765625,-89.6044921875,-86.4306640625,-84.0869140625,-80.9130859375,-79.0576171875,-78.1787109375,-77.0068359375,-78.9111328125,-79.7412109375,-80.5224609375,-81.4013671875,-82.1337890625,-83.4521484375,-85.2099609375,-86.5771484375,-88.1396484375,-89.1650390625,-91.4111328125,-92.2412109375,-93.6083984375,-94.8779296875,-95.2197265625,-90.9716796875,-86.0400390625,-82.1826171875,-79.9365234375,-77.0556640625,-75.1025390625,-72.2216796875,-71.2451171875,-71.5380859375,-72.3193359375,-72.4169921875,-72.3681640625,-73.0029296875,-74.7607421875,-76.4208984375,-77.9345703125,-79.0576171875,-80.9130859375,-83.1591796875,-84.7216796875,-86.9189453125,-88.6279296875,-86.0400390625,-81.7919921875,-77.8857421875,-74.7607421875,-72.5146484375,-69.2431640625,-68.0712890625,-66.0693359375,-65.5322265625,-65.5810546875,-66.1669921875,-66.6552734375,-66.3623046875,-67.5830078125,-69.7802734375,-71.1474609375,-72.9052734375,-73.7841796875,-75.6396484375,-77.2021484375,-79.2041015625,-81.1083984375,-82.5732421875,-80.0830078125,-75.4443359375,-71.6357421875,-67.5341796875,-63.8232421875,-61.4794921875,-58.2080078125,-55.7666015625,-55.2294921875,-55.1806640625,-56.2548828125,-57.5244140625,-58.1591796875,-60.1611328125,-62.3095703125,-64.7021484375,-66.1181640625,-68.7548828125,-70.5615234375,-72.9541015625,-75.2001953125,-77.2021484375,-79.0576171875,-77.9833984375,-74.2724609375,-71.2451171875,-67.9736328125,-65.4833984375,-62.5048828125,-61.1865234375,-60.3076171875,-60.4541015625,-60.7958984375,-61.3330078125,-62.2119140625,-63.3349609375,-64.0673828125,-66.4111328125,-68.3154296875,-70.0732421875,-72.7099609375,-73.7353515625,-75.7373046875,-77.9345703125,-79.4970703125,-79.7900390625,-75.6396484375,-72.9541015625,-69.1943359375,-65.2880859375,-63.1396484375,-59.7216796875,-57.3779296875,-55.8642578125,-56.3037109375,-56.5966796875,-56.3037109375,-57.4267578125,-57.8173828125,-58.9892578125,-60.4541015625,-61.0888671875,-63.1884765625,-64.1650390625,-65.7763671875,-67.6318359375,-68.8037109375,-71.4404296875,-70.0732421875,-64.6533203125,-61.1376953125,-57.4755859375,-53.5693359375,-48.5400390625,-45.5615234375,-42.4853515625,-41.5087890625,-41.7041015625,-43.0224609375,-44.2919921875,-45.8544921875,-46.9287109375,-49.4677734375,-51.4208984375,-53.0810546875,-56.0107421875,-58.7939453125,-58.8427734375,-61.2353515625,-63.9697265625,-66.3134765625,-65.7275390625,-62.1630859375,-58.9892578125,-54.6923828125,-51.1279296875,-47.7587890625,-44.7802734375,-42.7783203125,-42.1435546875,-44.5849609375,-47.1240234375,-48.2958984375,-51.2744140625,-53.8134765625,-56.4501953125,-59.6728515625,-63.6767578125,-66.7529296875,-70.5126953125,-74.1748046875,-78.2763671875,-81.3525390625,-83.7939453125,-82.8173828125,-78.3740234375,-75.5908203125,-72.8076171875,-70.6103515625,-68.1201171875,-65.2392578125,-64.6533203125,-65.3369140625,-65.8251953125,-66.8994140625,-68.2666015625,-69.2431640625,-70.5615234375,-72.3681640625,-74.3212890625,-76.2744140625,-78.2275390625,-79.7412109375,-82.1826171875,-84.4287109375,-85.5517578125,-81.9384765625,-78.0322265625,-75.9326171875,-73.0029296875,-69.0478515625,-67.0947265625,-63.7255859375,-62.4072265625,-62.7978515625,-63.4326171875,-64.4091796875,-64.7998046875,-65.6787109375,-67.2900390625,-68.5107421875,-70.5615234375,-71.8310546875,-73.0517578125,-75.4931640625,-76.7626953125,-77.6904296875,-76.9091796875,-72.7587890625,-68.9990234375,-65.2880859375,-60.4052734375,-55.4736328125,-51.3720703125,-47.8564453125,-45.4150390625,-45.3173828125,-44.4873046875,-45.0244140625,-46.9287109375,-47.5634765625,-49.1748046875,-49.9072265625,-52.2021484375,-54.3505859375,-56.7919921875,-57.8173828125,-60.3076171875,-60.6494140625,-60.7958984375,-57.0849609375,-53.4228515625,-49.0771484375,-44.4873046875,-40.4833984375,-36.6259765625,-33.1103515625,-32.7685546875,-34.9658203125,-36.7724609375,-38.3837890625,-39.8486328125,-42.5341796875,-44.6337890625,-48.1005859375,-51.5185546875,-53.5693359375,-56.8896484375,-60.3076171875,-63.0908203125,-66.5087890625,-65.2392578125,-61.4794921875,-58.6474609375,-54.5458984375,-50.2978515625,-47.2216796875,-44.7802734375,-42.0947265625,-41.9482421875,-42.5830078125,-41.7529296875,-42.2412109375,-43.2177734375,-44.0478515625,-46.1962890625,-47.6611328125,-49.2236328125,-51.8115234375,-54.0576171875,-56.5478515625,-58.7939453125,-60.0634765625,-57.5732421875,-53.1787109375,-50.1025390625,-45.9521484375,-41.6064453125,-38.9208984375,-35.2099609375,-34.4287109375,-34.9169921875,-35.9912109375,-36.7724609375,-38.1884765625,-39.6533203125,-42.5830078125,-44.4873046875,-46.8310546875,-48.8330078125,-51.4697265625,-53.5205078125,-55.4736328125,-57.0361328125,-54.6923828125,-50.6884765625,-46.4404296875,-41.1181640625,-36.5771484375,-32.8173828125,-28.1787109375,-26.7626953125,-26.3720703125,-28.5693359375,-30.4248046875,-32.2314453125,-35.1123046875,-38.0419921875,-41.2158203125,-44.4873046875,-47.7099609375,-51.2744140625,-52.9345703125,-55.8642578125,-58.1103515625,-59.0380859375,-56.4013671875,-52.0556640625,-48.3935546875,-43.3642578125,-38.9208984375,-35.0634765625,-32.3291015625,-29.5458984375,-31.5478515625,-33.2080078125,-34.5751953125,-37.2607421875,-39.6533203125,-43.5595703125,-47.3681640625,-50.0537109375,-53.7158203125,-56.6455078125,-59.8681640625,-63.0419921875,-66.0205078125,-66.8505859375,-63.4326171875,-61.5771484375,-57.9150390625,-55.4248046875,-52.8857421875,-51.1767578125,-50.5908203125,-50.2978515625,-52.4462890625,-53.9111328125,-56.1083984375,-58.2080078125,-61.1376953125,-63.9697265625,-66.3134765625,-69.9267578125,-72.4658203125,-75.6884765625,-77.9345703125,-80.7177734375,-82.0849609375,-78.8134765625,-74.9072265625,-71.3916015625,-68.7548828125,-65.2880859375,-62.9443359375,-59.7705078125,-59.4287109375,-60.5029296875,-60.6005859375,-60.7958984375,-62.1630859375,-63.1396484375,-64.7998046875,-66.5087890625,-68.8525390625,-70.8544921875,-72.8076171875,-75.6884765625,-78.2275390625,-79.9853515625,-77.8369140625,-72.6611328125,-69.1943359375,-65.5322265625,-62.3095703125,-58.2080078125,-54.9365234375,-52.2998046875,-52.5927734375,-52.6904296875,-52.4951171875,-53.9599609375,-54.9853515625,-56.5478515625,-59.0380859375,-61.2353515625,-63.3837890625,-66.0205078125,-68.2666015625,-71.7333984375,-73.7353515625,-74.7119140625,-72.0263671875,-66.3623046875,-61.4794921875,-56.9384765625,-52.7880859375,-48.4912109375,-44.8779296875,-42.3388671875,-43.6083984375,-44.4384765625,-44.8291015625,-46.7333984375,-48.8330078125,-51.6162109375,-54.8876953125,-58.2080078125,-62.1142578125,-64.4091796875,-67.4853515625,-70.5126953125,-73.1005859375,-74.7607421875,-72.3193359375,-67.7294921875,-62.7490234375,-58.8427734375,-57.1337890625,-54.5458984375,-51.2744140625,-50.8349609375,-52.2021484375,-52.9345703125,-53.4716796875,-55.1318359375,-56.9384765625,-58.6962890625,-61.5771484375,-64.5068359375,-66.6552734375,-68.2177734375,-70.5615234375,-73.2470703125,-75.1513671875,-76.2744140625,-72.6123046875,-66.8505859375,-64.1162109375,-60.5029296875,-57.5244140625,-54.2041015625,-51.5185546875,-50.0048828125,-50.2001953125,-50.4931640625,-50.3955078125,-51.3720703125,-52.7880859375,-53.7158203125,-54.9853515625,-56.3525390625,-57.4267578125,-59.1357421875,-59.9169921875,-61.8212890625,-62.3583984375,-61.5771484375,-56.1083984375,-52.1044921875,-46.9775390625,-41.8994140625,-37.3095703125,-34.1357421875,-31.4501953125,-31.2548828125,-32.4755859375,-33.0615234375,-35.4052734375,-37.3095703125,-39.1650390625,-40.9716796875,-44.0478515625,-46.3427734375,-48.7841796875,-51.2255859375,-54.7412109375,-56.9384765625,-59.0869140625,-56.1572265625,-53.3251953125,-50.2490234375,-48.2470703125,-45.5126953125,-43.2177734375,-40.3369140625,-40.3857421875,-43.0712890625,-44.6337890625,-46.4892578125,-49.0771484375,-51.3232421875,-54.7900390625,-57.6220703125,-60.2587890625,-64.3603515625,-67.2900390625,-70.3662109375,-73.4423828125,-75.6884765625,-77.2021484375,-73.1494140625,-69.0966796875,-66.7041015625,-63.5791015625,-61.2841796875,-59.5751953125,-58.7939453125,-59.3798828125,-60.8447265625,-60.9423828125,-62.1630859375,-63.1884765625,-65.1904296875,-67.7783203125,-69.2431640625,-70.4638671875,-72.4658203125,-74.3212890625,-77.2021484375,-77.9345703125,-77.3974609375,-73.0517578125,-69.0478515625,-65.4345703125,-60.4052734375,-57.6708984375,-54.5458984375,-51.5673828125,-51.5673828125,-51.7138671875,-51.7626953125,-53.0322265625,-53.6669921875,-54.6435546875,-55.3759765625,-58.0126953125,-59.7216796875,-62.3095703125,-65.2392578125,-67.3876953125,-67.5830078125,-66.2158203125,-62.1142578125,-58.3544921875,-54.1064453125,-49.4189453125,-45.6591796875,-40.9228515625,-39.1650390625,-39.1650390625,-38.6279296875,-38.7255859375,-40.1416015625,-41.2646484375,-42.2412109375,-43.5595703125,-45.3662109375,-47.8076171875,-49.4677734375,-51.9091796875,-54.8876953125,-55.3759765625,-53.6669921875,-49.7119140625,-45.4638671875,-40.3369140625,-35.7470703125,-31.0595703125,-27.5927734375,-25.3466796875,-26.2255859375,-27.1533203125,-28.0810546875,-30.2783203125,-32.2314453125,-34.7705078125,-38.0908203125,-41.0205078125,-44.3408203125,-47.3681640625,-51.1279296875,-54.0576171875,-56.0107421875,-56.3525390625,-52.6416015625,-48.0029296875,-43.9990234375,-39.8486328125,-35.5517578125,-32.3779296875,-30.6689453125,-31.0595703125,-32.2314453125,-33.9892578125,-35.1123046875,-37.2607421875,-39.8486328125,-41.9482421875,-44.6337890625,-48.1982421875,-50.4931640625,-52.3974609375,-54.4970703125,-56.8408203125,-57.7685546875,-54.0087890625,-49.1748046875,-45.9033203125,-41.1669921875,-36.4306640625,-33.1591796875,-30.5712890625,-30.1806640625,-30.9130859375,-31.8408203125,-32.8662109375,-34.5263671875,-37.2607421875,-39.6533203125,-42.0458984375,-44.1455078125,-45.8056640625,-47.7587890625,-49.9560546875,-51.7626953125,-53.0322265625,-50.3955078125,-46.0986328125,-40.8251953125,-35.7470703125,-30.1318359375,-27.0068359375,-24.1748046875,-21.6845703125,-22.5634765625,-23.3447265625,-24.5654296875,-27.1044921875,-29.9853515625,-32.7197265625,-35.5029296875,-38.2373046875,-41.8017578125,-44.7802734375,-47.3193359375,-49.8095703125,-52.2998046875,-53.4228515625,-49.8095703125,-46.0009765625,-40.5810546875,-35.9912109375,-31.6943359375,-27.2509765625,-22.7587890625,-21.4892578125,-22.0751953125,-23.5888671875,-25.2490234375,-26.8603515625,-28.2275390625,-31.0107421875,-34.5263671875,-38.0419921875,-40.9716796875,-44.2431640625,-47.3193359375,-51.5185546875,-53.8623046875,-56.7431640625,-57.6708984375,-54.1064453125,-50.3466796875,-46.1962890625,-42.8759765625,-39.3603515625,-36.2841796875,-33.7451171875,-32.3291015625,-33.0126953125,-33.5986328125,-35.2587890625,-37.3583984375,-39.6044921875,-41.5087890625,-44.2431640625,-46.1962890625,-48.7353515625,-50.8349609375,-53.7158203125,-55.8642578125,-57.0361328125,-58.4033203125,-55.3759765625,-51.6162109375,-48.5888671875,-44.1455078125,-39.8486328125,-36.1865234375,-34.0869140625,-33.5498046875,-35.0634765625,-36.5283203125,-38.4814453125,-39.4580078125,-41.2158203125,-43.2666015625,-46.0986328125,-48.6376953125,-50.9814453125,-54.0576171875,-56.2548828125,-57.9638671875,-60.7958984375,-62.0166015625,-60.0146484375,-55.3759765625,-51.1767578125,-46.9775390625,-42.8759765625,-39.0673828125,-35.5029296875,-33.8427734375,-34.2333984375,-35.1611328125,-36.4306640625,-37.2119140625,-38.2373046875,-40.5810546875,-42.3388671875,-45.6103515625,-47.7099609375,-49.4677734375,-50.7861328125,-52.5439453125,-54.2529296875,-55.9619140625,-55.0830078125,-49.6630859375,-46.4892578125,-41.6552734375,-37.5537109375,-33.3544921875,-30.6201171875,-29.1064453125,-29.6435546875,-31.2060546875,-32.1826171875,-34.0380859375,-36.1376953125,-38.2861328125,-41.2158203125,-44.3408203125,-48.1494140625,-51.3232421875,-55.1806640625,-57.9150390625,-60.8935546875,-63.7255859375,-63.5791015625,-60.9912109375,-56.9384765625,-53.3251953125,-50.0537109375,-46.9287109375,-43.9990234375,-41.9482421875,-42.5341796875,-43.3154296875,-44.3408203125,-45.4150390625,-46.3916015625,-49.3212890625,-51.3232421875,-53.2275390625,-55.6201171875,-56.8896484375,-59.4775390625,-61.5771484375,-63.7255859375,-65.6298828125
