PPG_subj_14,23,F,N,Non-diabetic,102,34.399,Forehead,0.185546875,0.185546875,0.185546875,0.185546875,0.185546875,0.185546875,90.7080078125,20.6591796875,21.4404296875,22.0263671875,22.2216796875,21.6357421875,20.9033203125,21.2939453125,21.3427734375,21.1962890625,21.5869140625,22.2705078125,22.2705078125,20.8544921875,20.4150390625,20.4150390625,19.3408203125,17.5830078125,17.3388671875,16.9482421875,17.4853515625,19.3896484375,20.4150390625,21.0986328125,21.4404296875,21.0498046875,21.1962890625,19.5849609375,19.4873046875,18.9990234375,18.2666015625,18.2666015625,18.2177734375,18.0712890625,17.4365234375,16.7529296875,16.1181640625,15.4833984375,15.3857421875,15.9228515625,16.9970703125,17.6318359375,17.3388671875,17.1923828125,16.8994140625,17.2900390625,16.8994140625,16.7041015625,16.7529296875,16.1669921875,16.0693359375,15.3857421875,14.7998046875,14.7021484375,13.9697265625,13.2861328125,12.7001953125,13.0908203125,14.0185546875,15.9228515625,16.9482421875,16.2646484375,16.5576171875,16.9482421875,16.9482421875,16.9970703125,16.5576171875,16.2158203125,16.5576171875,15.9228515625,16.1181640625,15.6787109375,14.8974609375,14.6044921875,13.9208984375,13.5791015625,14.7998046875,16.7529296875,16.7529296875,16.8994140625,17.3876953125,17.3388671875,15.9716796875,16.5087890625,16.8505859375,17.0458984375,16.1181640625,15.8251953125,15.4833984375,15.8251953125,14.7509765625,14.4091796875,14.0185546875,12.6513671875,12.8466796875,13.5791015625,15.1416015625,16.0205078125,16.8017578125,16.7041015625,16.8017578125,16.7529296875,16.3134765625,16.1181640625,15.6298828125,15.3369140625,14.5556640625,14.3115234375,14.3115234375,14.3603515625,13.2373046875,12.4072265625,12.0166015625,11.0400390625,11.8701171875,13.3349609375,14.2626953125,14.7998046875,14.8974609375,15.0439453125,15.2880859375,15.2880859375,14.7998046875,14.4580078125,14.6533203125,13.9208984375,13.7255859375,13.2373046875,12.9443359375,12.6513671875,11.9189453125,11.0400390625,10.8935546875,11.6748046875,11.4306640625,12.7978515625,13.9697265625,14.7509765625,15.2392578125,14.4580078125,14.7021484375,13.7255859375,13.9208984375,13.6767578125,13.6767578125,12.8466796875,12.3583984375,12.0654296875,12.2607421875,11.5771484375,10.9423828125,10.3564453125,10.4541015625,9.5751953125,8.6962890625,9.1357421875,10.3564453125,11.4306640625,12.3095703125,12.2607421875,12.1142578125,11.9189453125,12.0654296875,12.6513671875,12.1630859375,12.1142578125,11.5771484375,11.1865234375,10.4541015625,10.1611328125,9.6240234375,8.8916015625,8.2568359375,8.0615234375,7.5244140625,7.7197265625,7.8173828125,10.0146484375,10.8447265625,11.3330078125,11.0400390625,10.8447265625,10.2587890625,10.7470703125,10.2099609375,10.2587890625,10.2099609375,9.5751953125,9.7216796875,9.0380859375,8.5986328125,8.3056640625,7.7685546875,7.5732421875,6.8896484375,6.5966796875,7.5244140625,9.0869140625,9.8681640625,10.4052734375,11.1376953125,10.8447265625,10.6982421875,10.8935546875,11.1865234375,10.5517578125,10.0146484375,10.2099609375,9.6728515625,10.1611328125,9.7705078125,9.5263671875,8.9404296875,7.5732421875,7.5244140625,7.6220703125,7.3291015625,8.6962890625,9.7216796875,9.9658203125,10.9912109375,11.2841796875,11.4794921875,11.8701171875,12.2607421875,11.5771484375,11.9677734375,11.6748046875,10.8447265625,10.3564453125,9.4775390625,9.6240234375,8.8916015625,8.2568359375,7.5244140625,7.6708984375,7.1337890625,7.1826171875,8.4521484375,10.2099609375,10.2099609375,10.8447265625,10.8935546875,10.8935546875,11.9189453125,11.6748046875,11.2353515625,11.4306640625,11.3818359375,10.8447265625,10.5517578125,9.6728515625,9.7705078125,8.6474609375,7.6708984375,7.4267578125,7.3291015625,6.6455078125,5.8154296875,5.9619140625,6.8896484375,8.4521484375,8.6474609375,9.3798828125,9.4775390625,10.0634765625,10.2587890625,9.8681640625,9.7705078125,10.0634765625,9.3798828125,8.4521484375,7.5732421875,7.7197265625,7.9638671875,6.6943359375,6.3525390625,6.0107421875,5.3759765625,4.9365234375,4.6923828125,4.4482421875,3.7646484375,3.2275390625,5.0830078125,6.1083984375,6.8408203125,7.2802734375,7.3779296875,7.5244140625,6.9384765625,7.7685546875,6.8408203125,5.9619140625,6.1083984375,5.5224609375,4.9853515625,4.4970703125,4.2529296875,2.8369140625,2.8369140625,2.6416015625,2.4462890625,1.3232421875,0.4443359375,0.4931640625,1.6162109375,3.3740234375,3.7158203125,3.6181640625,4.4482421875,5.2294921875,4.6435546875,4.3994140625,4.6923828125,4.2529296875,3.8623046875,3.8134765625,3.4228515625,3.0322265625,2.0068359375,1.6162109375,0.9326171875,1.1279296875,0.5908203125,0.0048828125,-0.4833984375,-0.7275390625,1.1767578125,2.6416015625,2.4951171875,3.5693359375,3.5205078125,3.9111328125,4.0087890625,4.1552734375,3.7646484375,3.8134765625,3.6181640625,2.7392578125,1.9091796875,1.4697265625,1.2744140625,0.5908203125,-0.4345703125,-1.0205078125,-1.3134765625,-1.9970703125,-2.0458984375,-2.4365234375,-2.2900390625,0.3955078125,1.4697265625,2.0068359375,1.9091796875,2.2021484375,2.0556640625,2.0556640625,2.4951171875,2.2021484375,1.7626953125,1.6650390625,1.3720703125,0.8349609375,-0.1904296875,-0.7275390625,-1.3134765625,-1.6552734375,-2.2900390625,-3.6083984375,-2.9736328125,-3.5107421875,-4.2919921875,-4.3896484375,-3.4130859375,-1.0693359375,-0.4345703125,0.0537109375,0.6884765625,0.6884765625,0.6884765625,0.9326171875,0.9814453125,0.9326171875,0.6884765625,0.0048828125,-0.3857421875,-0.8251953125,-1.4111328125,-2.6318359375,-2.5341796875,-3.7060546875,-3.9990234375,-4.3408203125,-4.7802734375,-5.4638671875,-6.4404296875,-6.7333984375,-6.3916015625,-5.0244140625,-3.3154296875,-2.8759765625,-2.7783203125,-2.3876953125,-2.5341796875,-2.2412109375,-2.2412109375,-2.4365234375,-3.0712890625,-2.8759765625,-2.6806640625,-3.7060546875,-4.5849609375,-4.9267578125,-5.5615234375,-6.9287109375,-6.8310546875,-6.6845703125,-7.7587890625,-7.9052734375,-8.9306640625,-8.7841796875,-6.6845703125,-5.5126953125,-5.2685546875,-4.8291015625,-5.2685546875,-4.5361328125,-3.9013671875,-4.0966796875,-4.0478515625,-4.3896484375,-4.2431640625,-4.9755859375,-4.9267578125,-5.4638671875,-5.8544921875,-6.7822265625,-7.6123046875,-7.7099609375,-8.1494140625,-9.0771484375,-8.8330078125,-7.2216796875,-5.9033203125,-4.7314453125,-4.4873046875,-3.9501953125,-3.8037109375,-3.8525390625,-4.0478515625,-4.1455078125,-4.0478515625,-4.0966796875,-5.0732421875,-5.2197265625,-6.2451171875,-6.6357421875,-7.4658203125,-8.4912109375,-8.8330078125,-9.3701171875,-9.8583984375,-10.2001953125,-10.1025390625,-8.5400390625,-7.4169921875,-6.4404296875,-5.6103515625,-5.4638671875,-4.9267578125,-4.5361328125,-5.0244140625,-5.3173828125,-5.1708984375,-5.2197265625,-5.3173828125,-6.0009765625,-6.7333984375,-7.0263671875,-7.4658203125,-8.7841796875,-9.1259765625,-9.2236328125,-10.0048828125,-10.0537109375,-11.0302734375,-11.4697265625,-11.5673828125,-10.8837890625,-8.9306640625,-7.6611328125,-7.5146484375,-6.0986328125,-6.4892578125,-5.8544921875,-6.4404296875,-6.4892578125,-6.3427734375,-6.7333984375,-7.5146484375,-8.0517578125,-8.6865234375,-8.2470703125,-9.4677734375,-10.1025390625,-10.5419921875,-10.8349609375,-11.9091796875,-12.7880859375,-12.7392578125,-13.4228515625,-14.1064453125,-15.2783203125,-15.6201171875,-13.9599609375,-11.9091796875,-10.9814453125,-10.1025390625,-10.2978515625,-9.8583984375,-10.0537109375,-9.4677734375,-9.9072265625,-9.9072265625,-10.0537109375,-10.2001953125,-11.3232421875,-11.2744140625,-11.9580078125,-13.2275390625,-13.4228515625,-13.8623046875,-14.7412109375,-14.6435546875,-15.2783203125,-15.6201171875,-16.0595703125,-15.5712890625,-13.9599609375,-12.5439453125,-12.2021484375,-11.3232421875,-11.1767578125,-10.5419921875,-10.3466796875,-10.2001953125,-10.5419921875,-10.8837890625,-10.7861328125,-11.3720703125,-11.6650390625,-11.8115234375,-12.6904296875,-13.5205078125,-14.3017578125,-14.5947265625,-14.6923828125,-15.1806640625,-15.5712890625,-15.9619140625,-14.1552734375,-11.8603515625,-11.7626953125,-10.9326171875,-10.7373046875,-10.1025390625,-9.7607421875,-9.6630859375,-9.6630859375,-9.8583984375,-9.8095703125,-10.1513671875,-11.1767578125,-10.7861328125,-11.7626953125,-13.4716796875,-13.0810546875,-13.8623046875,-14.8876953125,-14.7900390625,-15.0830078125,-15.8642578125,-16.1572265625,-15.6689453125,-13.5205078125,-12.6904296875,-11.8603515625,-11.1279296875,-10.2001953125,-10.3955078125,-10.2001953125,-10.3955078125,-11.0791015625,-10.4931640625,-11.0302734375,-11.7626953125,-12.1533203125,-12.2509765625,-13.2763671875,-13.7646484375,-14.8876953125,-14.6923828125,-15.1318359375,-16.0595703125,-16.7431640625,-17.1826171875,-17.7197265625,-18.9404296875,-18.9404296875,-19.3310546875,-18.1591796875,-16.4013671875,-15.4248046875,-14.5947265625,-13.9111328125,-12.8857421875,-12.5439453125,-11.7138671875,-12.5927734375,-12.6904296875,-12.4462890625,-13.1787109375,-13.8623046875,-13.9111328125,-14.6435546875,-15.3759765625,-15.9619140625,-16.4990234375,-16.6455078125,-16.6943359375,-17.8662109375,-17.9638671875,-18.8427734375,-18.5986328125,-19.8681640625,-20.6005859375,-21.7236328125,-20.5517578125,-18.6474609375,-17.5244140625,-16.7431640625,-16.4990234375,-16.1572265625,-15.5224609375,-15.1318359375,-15.1318359375,-15.8154296875,-16.1083984375,-16.7919921875,-17.3779296875,-17.5244140625,-18.5498046875,-18.9404296875,-19.9658203125,-20.7470703125,-21.0888671875,-20.7470703125,-21.4306640625,-22.0654296875,-22.7490234375,-22.9931640625,-22.0654296875,-20.5029296875,-20.1123046875,-19.4287109375,-19.1845703125,-18.2080078125,-18.1103515625,-18.1591796875,-17.7685546875,-18.1591796875,-18.2080078125,-18.5498046875,-19.0380859375,-20.0146484375,-19.8681640625,-21.3818359375,-21.6748046875,-22.2119140625,-22.7001953125,-22.7490234375,-23.2373046875,-23.2373046875,-22.5048828125,-20.8447265625,-19.8193359375,-19.5263671875,-19.6728515625,-19.3310546875,-19.1357421875,-19.1357421875,-19.2822265625,-19.2333984375,-19.5263671875,-19.4775390625,-19.9169921875,-20.3564453125,-21.0888671875,-21.7236328125,-22.6025390625,-23.5302734375,-23.5791015625,-24.6533203125,-24.7998046875,-25.6787109375,-26.6064453125,-26.5576171875,-24.7509765625,-23.1884765625,-22.5537109375,-21.8701171875,-21.3818359375,-20.8935546875,-20.0146484375,-20.4541015625,-20.9423828125,-20.9912109375,-21.2353515625,-21.4306640625,-22.0654296875,-22.1142578125,-22.7001953125,-24.2138671875,-24.7509765625,-24.8486328125,-25.5810546875,-26.2158203125,-26.5576171875,-27.0458984375,-27.4853515625,-28.1689453125,-28.9990234375,-30.0244140625,-30.0244140625,-30.4150390625,-29.2919921875,-26.9970703125,-26.1181640625,-25.6298828125,-24.9951171875,-23.7744140625,-23.9208984375,-22.8955078125,-23.8232421875,-23.9208984375,-24.4580078125,-24.7021484375,-25.8251953125,-26.1181640625,-26.2158203125,-27.1923828125,-27.9248046875,-28.6083984375,-29.0478515625,-28.8037109375,-29.6337890625,-30.0244140625,-31.6845703125,-32.2216796875,-32.6611328125,-33.8818359375,-34.0283203125,-34.3212890625,-33.0517578125,-31.3916015625,-29.7802734375,-29.5849609375,-28.9990234375,-28.3154296875,-27.7783203125,-28.2177734375,-28.7060546875,-29.3896484375,-29.6826171875,-29.1455078125,-29.9755859375,-29.7314453125,-30.7080078125,-30.8544921875,-31.5380859375,-31.4404296875,-32.5146484375,-33.4912109375,-34.2724609375,-33.9794921875,-35.4443359375,-35.5419921875,-35.8349609375,-34.7607421875,-33.1005859375,-31.6845703125,-31.4892578125,-30.8544921875,-30.5615234375,-29.9267578125,-29.3408203125,-29.6826171875,-29.3408203125,-30.2685546875,-30.4638671875,-31.2451171875,-31.2939453125,-31.8310546875,-32.2705078125,-33.4423828125,-32.8076171875,-33.9794921875,-34.4189453125,-34.8095703125,-35.6396484375,-36.0302734375,-36.1279296875,-35.4443359375,-34.1259765625,-32.6123046875,-32.0751953125,-30.8056640625,-30.8544921875,-30.0244140625,-29.8291015625,-30.5126953125,-30.3662109375,-30.9033203125,-31.0986328125,-31.0498046875,-32.1240234375,-32.1728515625,-32.9052734375,-33.5400390625,-34.2236328125,-33.7353515625,-34.7607421875,-35.2490234375,-35.8837890625,-36.8115234375,-37.5439453125,-37.5927734375,-35.8349609375,-33.8818359375,-33.1494140625,-32.4169921875,-32.0263671875,-31.2939453125,-31.0009765625,-30.8056640625,-31.2451171875,-32.3193359375,-32.0263671875,-31.8310546875,-32.6123046875,-33.0517578125,-33.3447265625,-33.8818359375,-34.5166015625,-35.1025390625,-35.2490234375,-35.5419921875,-36.2255859375,-37.2509765625,-37.4951171875,-38.2275390625,-38.9111328125,-39.5947265625,-39.7412109375,-39.4970703125,-36.9091796875,-35.2978515625,-34.8095703125,-34.1259765625,-33.5888671875,-33.2958984375,-32.9052734375,-33.7353515625,-33.8818359375,-33.7353515625,-34.9560546875,-35.1025390625,-34.5654296875,-35.2978515625,-35.5908203125,-36.0302734375,-36.8115234375,-36.8115234375,-37.5927734375,-38.3740234375,-38.8623046875,-39.1064453125,-40.0341796875,-40.3271484375,-40.5224609375,-41.3525390625,-41.0595703125,-38.8623046875,-36.8603515625,-37.0556640625,-36.8115234375,-36.7138671875,-35.8349609375,-35.2001953125,-34.9072265625,-34.9072265625,-34.9072265625,-34.7607421875,-34.9072265625,-34.7607421875,-35.6396484375,-36.3232421875,-36.0302734375,-36.6162109375,-37.0556640625,-37.7392578125,-37.8369140625,-38.7158203125,-39.5947265625,-39.2041015625,-39.6435546875,-38.3740234375,-36.8603515625,-36.1279296875,-35.4443359375,-34.4677734375,-34.5654296875,-34.0771484375,-33.2958984375,-33.8818359375,-33.6376953125,-33.9306640625,-34.4677734375,-34.8095703125,-35.2490234375,-35.1025390625,-35.8837890625,-37.4951171875,-37.2998046875,-38.2763671875,-38.7158203125,-38.9111328125,-39.4970703125,-40.0341796875,-40.1806640625,-39.6435546875,-37.7880859375,-36.8115234375,-36.6162109375,-35.7373046875,-35.3466796875,-35.2001953125,-34.2724609375,-34.3701171875,-34.7607421875,-34.3212890625,-35.0048828125,-35.4931640625,-35.6884765625,-36.1279296875,-36.7138671875,-37.9345703125,-38.2763671875,-38.4716796875,-39.0576171875,-39.3994140625,-39.5947265625,-40.1806640625,-40.3271484375,-41.5966796875,-42.0849609375,-43.1103515625,-42.2802734375,-40.0830078125,-37.6904296875,-37.0556640625,-35.3955078125,-35.0537109375,-34.8095703125,-34.2236328125,-34.4189453125,-35.2978515625,-36.0302734375,-36.0302734375,-36.2255859375,-36.7138671875,-37.3974609375,-37.7880859375,-38.0810546875,-39.3505859375,-39.2041015625,-39.7900390625,-40.2783203125,-41.5966796875,-42.6708984375,-42.7685546875,-44.1845703125,-44.8681640625,-45.3076171875,-45.8935546875,-45.8447265625,-43.5498046875,-41.4013671875,-40.5712890625,-40.0830078125,-39.5947265625,-39.5458984375,-38.8623046875,-38.7158203125,-39.3994140625,-39.6435546875,-39.6435546875,-40.4736328125,-41.0107421875,-41.4501953125,-42.0849609375,-42.8662109375,-42.5244140625,-43.4033203125,-44.2333984375,-44.9169921875,-44.7705078125,-45.5029296875,-45.6494140625,-46.3330078125,-47.1630859375,-46.9189453125,-45.9423828125,-43.5986328125,-43.2568359375,-43.5009765625,-42.9638671875,-42.0849609375,-41.2548828125,-41.3525390625,-41.5478515625,-41.4990234375,-42.2314453125,-41.5966796875,-42.2314453125,-42.5244140625,-43.0615234375,-43.6962890625,-44.0869140625,-44.5263671875,-44.7705078125,-44.9658203125,-45.7958984375,-46.8701171875,-47.2119140625,-47.7001953125,-46.6259765625,-44.9658203125,-43.7939453125,-42.4755859375,-41.8408203125,-41.4990234375,-40.9619140625,-41.2548828125,-40.7666015625,-41.4501953125,-41.3525390625,-42.0361328125,-42.1337890625,-42.3779296875,-43.2080078125,-43.8427734375,-44.8193359375,-45.6982421875,-45.5517578125,-45.8935546875,-46.7724609375,-46.5771484375,-47.3095703125,-48.3837890625,-48.2861328125,-47.8466796875,-45.1123046875,-44.8193359375,-43.8427734375,-42.8662109375,-41.5966796875,-41.4013671875,-41.2548828125,-41.0107421875,-41.6455078125,-41.8408203125,-41.8408203125,-42.4755859375,-43.6474609375,-43.2080078125,-43.8916015625,-44.7705078125,-45.3564453125,-45.6494140625,-46.1865234375,-46.6748046875,-47.3095703125,-47.8466796875,-48.1396484375,-48.7744140625,-49.6533203125,-49.0673828125,-48.3837890625,-46.1865234375,-44.8681640625,-45.0634765625,-43.8427734375,-42.8662109375,-43.3544921875,-42.7197265625,-43.5986328125,-43.9892578125,-43.9404296875,-44.6240234375,-45.1123046875,-45.7958984375,-46.1376953125,-46.6748046875,-47.5048828125,-48.0419921875,-48.3349609375,-48.7255859375,-49.4091796875,-50.5322265625,-50.9716796875,-51.8505859375,-52.4853515625,-53.3154296875,-53.3642578125,-51.7041015625,-49.6044921875,-49.2626953125,-48.4814453125,-48.3349609375,-47.9931640625,-47.9443359375,-47.5537109375,-47.6513671875,-48.6767578125,-48.7255859375,-48.8720703125,-48.6767578125,-49.5556640625,-49.8486328125,-50.3857421875,-51.4111328125,-51.9970703125,-51.6064453125,-52.1435546875,-53.2177734375,-53.4619140625,-54.3408203125,-54.4384765625,-54.8779296875,-53.6083984375,-51.1669921875,-50.3857421875,-49.8974609375,-49.7509765625,-48.7744140625,-48.7255859375,-47.9931640625,-48.5791015625,-48.9208984375,-48.8720703125,-49.7021484375,-50.2880859375,-50.3857421875,-50.6787109375,-50.8740234375,-51.8505859375,-52.4853515625,-52.2412109375,-53.1689453125,-53.8037109375,-54.3896484375,-55.1220703125,-54.9755859375,-55.4150390625,-52.7294921875,-51.6064453125,-51.2646484375,-51.2646484375,-49.5556640625,-49.4580078125,-49.5068359375,-49.3115234375,-50.0439453125,-49.7509765625,-49.7509765625,-50.0439453125,-50.3857421875,-51.7041015625,-51.9970703125,-52.1435546875,-53.0224609375,-53.4130859375,-53.4619140625,-53.6083984375,-54.7802734375,-55.1708984375,-55.3173828125,-56.3916015625,-55.9033203125,-53.9990234375,-52.9248046875,-52.3876953125,-51.7041015625,-50.7275390625,-49.7509765625,-49.2138671875,-49.4091796875,-49.7998046875,-49.8486328125,-50.2880859375,-50.8740234375,-50.8740234375,-51.0693359375,-51.8505859375,-52.5830078125,-53.1689453125,-53.4619140625,-54.5361328125,-54.5849609375,-55.2197265625,-55.8544921875,-56.3427734375,-57.2705078125,-57.5634765625,-58.3447265625,-58.1005859375,-56.0498046875,-53.8525390625,-52.9248046875,-52.3876953125,-51.5087890625,-51.6064453125,-51.1181640625,-51.1181640625,-51.4599609375,-51.2158203125,-51.6064453125,-52.0947265625,-52.5341796875,-53.4130859375,-53.6572265625,-54.3896484375,-55.0732421875,-55.0244140625,-55.8544921875,-56.8310546875,-57.0751953125,-57.8076171875,-57.9541015625,-58.2958984375,-58.5400390625,-58.6376953125,-57.6611328125,-56.0009765625,-55.1708984375,-55.0244140625,-54.4384765625,-54.0966796875,-53.4130859375,-53.4619140625,-53.4619140625,-53.6572265625,-53.9990234375,-54.4873046875,-54.0478515625,-55.0732421875,-55.4150390625,-56.2451171875,-56.8798828125,-56.9775390625,-57.1240234375,-58.1494140625,-57.9052734375,-58.7841796875,-59.3212890625,-58.9306640625,-57.7099609375,-56.6357421875,-55.2685546875,-55.1220703125,-54.8291015625,-54.1943359375,-53.6083984375,-53.4130859375,-53.6572265625,-53.7060546875,-54.3896484375,-54.7314453125,-55.4638671875,-55.7568359375,-56.7333984375,-57.2216796875,-58.3447265625,-58.5888671875,-58.7841796875,-59.0771484375,-59.5654296875,-60.8349609375,-60.9326171875,-61.4208984375,-59.9072265625,-58.1982421875,-57.8076171875,-56.3427734375,-55.7080078125,-55.5126953125,-55.8056640625,-55.0732421875,-55.0732421875,-55.4150390625,-55.3662109375,-55.9521484375,-56.0009765625,-56.8310546875,-57.4658203125,-58.2958984375,-59.2724609375,-59.2236328125,-59.0771484375,-59.8583984375,-60.2001953125,-61.8115234375,-61.2744140625,-61.9091796875,-63.2763671875,-62.5439453125,-60.8349609375,-59.0771484375,-58.4912109375,-57.2705078125,-56.5869140625,-56.3916015625,-56.3916015625,-56.1474609375,-56.3427734375,-56.7333984375,-57.4658203125,-57.7587890625,-58.4912109375,-58.8818359375,-59.4189453125,-59.9560546875,-60.1513671875,-60.9326171875,-61.1767578125,-62.2998046875,-62.1044921875,-63.0810546875,-63.8623046875,-64.7412109375,-65.2294921875,-65.1318359375,-62.9345703125,-61.5185546875,-61.4697265625,-60.6396484375,-60.2001953125,-59.2236328125,-59.2236328125,-59.6142578125,-60.0048828125,-60.2978515625,-60.3955078125,-60.3955078125,-60.9326171875,-61.9091796875,-62.2998046875,-63.2275390625,-62.9345703125,-63.7158203125,-64.2041015625,-64.0576171875,-65.2294921875,-65.8642578125,-65.9130859375,-65.3759765625,-63.8623046875,-62.5439453125,-61.6650390625,-61.4208984375,-60.2490234375,-59.5654296875,-59.1748046875,-59.8583984375,-60.0048828125,-60.0537109375,-61.0791015625,-61.1279296875,-61.8603515625,-61.8115234375,-63.3251953125,-63.3251953125,-63.4228515625,-64.3505859375,-64.7900390625,-64.7900390625,-65.9619140625,-66.5966796875,-66.4990234375,-64.6435546875,-63.4716796875,-62.4951171875,-62.4951171875,-61.7138671875,-61.3232421875,-60.6884765625,-60.2001953125,-60.6396484375,-60.6884765625,-60.6396484375,-61.8115234375,-62.0556640625,-62.3486328125,-62.7880859375,-63.7158203125,-64.3994140625,-64.3505859375,-64.7412109375,-65.9130859375,-65.8642578125,-66.7919921875,-67.2802734375,-67.5732421875,-66.5966796875,-65.1318359375,-64.1064453125,-62.3486328125,-62.4951171875,-61.9091796875,-61.5673828125,-61.3232421875,-61.7138671875,-61.6162109375,-61.7626953125,-61.3232421875,-62.5927734375,-62.8857421875,-63.7646484375,-63.6669921875,-64.4482421875,-65.6689453125,-66.0595703125,-66.4013671875,-66.8408203125,-67.5244140625,-68.2568359375,-68.5986328125,-69.2333984375,-69.8193359375,-69.5263671875,-66.7431640625,-65.4736328125,-65.0830078125,-65.2783203125,-64.4482421875,-64.4482421875,-64.1552734375,-64.1552734375,-64.3994140625,-65.2294921875,-64.6435546875,-64.8388671875,-66.2548828125,-66.4501953125,-66.9384765625,-67.4267578125,-68.1103515625,-68.1103515625,-68.2568359375,-69.2333984375,-70.0634765625,-70.5517578125,-70.6005859375,-70.2587890625,-67.9638671875,-66.6455078125,-66.2548828125,-65.4248046875,-65.9619140625,-64.4970703125,-64.3994140625,-64.4482421875,-64.5458984375,-64.9365234375,-64.8388671875,-65.2783203125,-66.1572265625,-66.9873046875,-66.6455078125,-67.5732421875,-67.8173828125,-68.3544921875,-68.3056640625,-69.0380859375,-69.5263671875,-70.0634765625,-70.1611328125,-68.5498046875,-66.7919921875,-66.2060546875,-65.8154296875,-64.5947265625,-64.5947265625,-64.3505859375,-63.7158203125,-64.4482421875,-63.5693359375,-64.7412109375,-65.0341796875,-65.6201171875,-65.9130859375,-67.1826171875,-67.1337890625,-67.8173828125,-68.2568359375,-69.2822265625,-69.5263671875,-69.7705078125,-70.0146484375,-71.4306640625,-72.2119140625,-71.7236328125,-70.6005859375,-68.7451171875,-67.3779296875,-66.6455078125,-66.3037109375,-64.9853515625,-65.1806640625,-65.2783203125,-65.1806640625,-65.3271484375,-65.4736328125,-65.7666015625,-65.9130859375,-66.4990234375,-67.5244140625,-67.7685546875,-68.3544921875,-69.3798828125,-69.7705078125,-70.6982421875,-70.8935546875,-72.1142578125,-72.1142578125,-72.4560546875,-73.8232421875,-73.7744140625,-72.5048828125,-70.3076171875,-69.4287109375,-68.3056640625,-68.0615234375,-67.3291015625,-66.8896484375,-66.6943359375,-66.5966796875,-67.2802734375,-67.7197265625,-67.8173828125,-68.4033203125,-69.2822265625,-69.5263671875,-69.8681640625,-70.6982421875,-70.6494140625,-71.2841796875,-71.8701171875,-72.2119140625,-73.1396484375,-73.7255859375,-74.8486328125,-75.0439453125,-73.9697265625,-71.9189453125,-70.7958984375,-70.3076171875,-70.0634765625,-69.1357421875,-68.7451171875,-68.8427734375,-69.1845703125,-69.2822265625,-69.9658203125,-69.9658203125,-70.2587890625,-70.5517578125,-71.1376953125,-71.9677734375,-72.2119140625,-72.4072265625,-73.0908203125,-73.4326171875,-73.6767578125,-74.3115234375,-75.2880859375,-74.1162109375,-71.8212890625,-70.7958984375,-69.8681640625,-70.0634765625,-69.1357421875,-68.9404296875,-68.9404296875,-68.5498046875,-68.8427734375,-68.5986328125,-69.2822265625,-69.6728515625,-70.6982421875,-70.5029296875,-71.5283203125,-72.2119140625,-72.4560546875,-73.4814453125,-73.6767578125,-73.9208984375,-74.9951171875,-74.7998046875,-74.9951171875,-72.7978515625,-70.9912109375,-70.7470703125,-70.0634765625,-69.7216796875,-68.8427734375,-68.8916015625,-68.8427734375,-68.7451171875,-68.6962890625,-69.0869140625,-69.0380859375,-69.4775390625,-69.7705078125,-71.3330078125,-71.7724609375,-71.9677734375,-72.9931640625,-73.1884765625,-73.7255859375,-74.0673828125,-74.7998046875,-75.1904296875,-75.9228515625,-76.3134765625,-75.5322265625,-73.6279296875,-72.4072265625,-71.6748046875,-71.3330078125,-70.3564453125,-69.5263671875,-69.0380859375,-69.8193359375,-69.5263671875,-69.5751953125,-70.5517578125,-70.7958984375,-71.2841796875,-71.8701171875,-72.7001953125,-73.3837890625,-73.4814453125,-74.1162109375,-74.5068359375,-75.1904296875,-75.2392578125,-76.1669921875,-76.8017578125,-77.9736328125,-78.4619140625,-79.1943359375,-77.2900390625,-74.8486328125,-74.1162109375,-73.8232421875,-73.0419921875,-72.3583984375,-72.2607421875,-72.2119140625,-72.3095703125,-73.2861328125,-72.7978515625,-73.0419921875,-73.0908203125,-73.9208984375,-73.6767578125,-74.6044921875,-75.5322265625,-75.3857421875,-76.0205078125,-77.0458984375,-77.5341796875,-77.9248046875,-79.1943359375,-79.3408203125,-79.1455078125,-78.1689453125,-76.3134765625,-74.8486328125,-73.9208984375,-73.8720703125,-72.7490234375,-72.9443359375,-72.4072265625,-72.6025390625,-72.7490234375,-72.7978515625,-73.5302734375,-73.2373046875,-74.5068359375,-74.1650390625,-74.3603515625,-75.4833984375,-75.8251953125,-76.6064453125,-77.0947265625,-77.4365234375,-77.8271484375,-78.9501953125,-79.4384765625,-80.3662109375,-79.7802734375,-79.5849609375,-77.0947265625,-75.9716796875,-75.5810546875,-74.4580078125,-73.7255859375,-73.4326171875,-73.3349609375,-73.1884765625,-73.4326171875,-73.5791015625,-74.1162109375,-74.8486328125,-74.9951171875,-74.8486328125,-75.3857421875,-76.5576171875,-77.5830078125,-77.6806640625,-77.7783203125,-78.9013671875,-79.3896484375,-79.8291015625,-80.1708984375,-80.6591796875,-81.6357421875,-82.1728515625,-81.1962890625,-78.9501953125,-77.4853515625,-76.4599609375,-76.4111328125,-75.5322265625,-75.2392578125,-74.7509765625,-75.0439453125,-74.8974609375,-74.6533203125,-75.5322265625,-75.8251953125,-75.8740234375,-76.5576171875,-77.4365234375,-77.8271484375,-78.6572265625,-78.6083984375,-79.6337890625,-79.9267578125,-81.0009765625,-81.6357421875,-82.0751953125,-82.6123046875,-83.1494140625,-83.4912109375,-83.7353515625,-81.3916015625,-80.8544921875,-79.1455078125,-78.9501953125,-77.9736328125,-78.2177734375,-78.1689453125,-77.7783203125,-78.0224609375,-78.5107421875,-78.4619140625,-79.0966796875,-79.1455078125,-79.2919921875,-79.8291015625,-80.6591796875,-81.4404296875,-81.5380859375,-82.2705078125,-82.7099609375,-82.9052734375,-83.2470703125,-84.3701171875,-85.0537109375,-85.0048828125,-83.8818359375,-82.1728515625,-80.9033203125,-79.8779296875,-80.2685546875,-79.5849609375,-78.8525390625,-78.8037109375,-78.8525390625,-79.1943359375,-79.0478515625,-80.1220703125,-80.1708984375,-80.2197265625,-80.7568359375,-81.2451171875,-82.1240234375,-82.0263671875,-82.8564453125,-83.1005859375,-83.6865234375,-83.5400390625,-84.9072265625,-85.8349609375,-86.3720703125,-85.6396484375,-83.4423828125,-81.7333984375,-80.8056640625,-80.0244140625,-79.8291015625,-78.9501953125,-78.6572265625,-78.8037109375,-78.5107421875,-79.1455078125,-79.0966796875,-79.6337890625,-79.9755859375,-80.2685546875,-80.6103515625,-81.2451171875,-81.8798828125,-82.4658203125,-82.6123046875,-82.9541015625,-83.6376953125,-84.4677734375,-84.7607421875,-85.3955078125,-86.1767578125,-86.5673828125,-84.5166015625,-82.6123046875,-81.7822265625,-81.1474609375,-80.2197265625,-79.4873046875,-79.3408203125,-78.5595703125,-79.0966796875,-79.1943359375,-79.4384765625,-79.6337890625,-79.9267578125,-80.8544921875,-81.0986328125,-81.3916015625,-81.9775390625,-82.6123046875,-83.2958984375,-83.1982421875,-84.2724609375,-84.8095703125,-85.6396484375,-86.0302734375,-86.9091796875,-87.7880859375,-87.7392578125,-86.4208984375,-83.8818359375,-82.4169921875,-82.0263671875,-81.6357421875,-81.3427734375,-80.7568359375,-80.3173828125,-80.6591796875,-81.0986328125,-81.0009765625,-81.7822265625,-81.8798828125,-82.3193359375,-82.1728515625,-82.8564453125,-83.4912109375,-84.3701171875,-84.8095703125,-85.3466796875,-85.5419921875,-86.3232421875,-86.5673828125,-87.3974609375,-88.1298828125,-87.0556640625,-85.4931640625,-83.7841796875,-82.8564453125,-82.2705078125,-82.1728515625,-82.0263671875,-81.7822265625,-82.0751953125,-82.1240234375,-82.4169921875,-82.3681640625,-82.1240234375,-83.0029296875,-82.9052734375,-83.3935546875,-83.5888671875,-84.8095703125,-85.0537109375,-85.2490234375,-85.5908203125,-86.3232421875,-87.0068359375,-86.8115234375,-86.0791015625,-83.5400390625,-82.3681640625,-81.9775390625,-81.9287109375,-81.2451171875,-80.3173828125,-80.6103515625,-80.5615234375,-80.9033203125,-81.5869140625,-81.0009765625,-81.1474609375,-81.6357421875,-82.0263671875,-82.9541015625,-83.3447265625,-84.2236328125,-84.3212890625,-84.4189453125,-84.9560546875,-85.6884765625,-86.0791015625,-86.7626953125,-86.2255859375,-84.3701171875,-82.4658203125,-82.2216796875,-81.5869140625,-81.0498046875,-80.8544921875,-80.3173828125,-79.9267578125,-80.5615234375,-79.6337890625,-80.4638671875,-80.5615234375,-81.0009765625,-81.1474609375,-81.8310546875,-81.8310546875,-83.1494140625,-83.5888671875,-83.8330078125,-84.7607421875,-84.7607421875,-85.5419921875,-86.1279296875,-87.2021484375,-88.3251953125,-88.0322265625,-87.1533203125,-84.4677734375,-83.7353515625,-82.3193359375,-81.7822265625,-81.3427734375,-80.9521484375,-80.3173828125,-80.6591796875,-81.0498046875,-81.1474609375,-81.8798828125,-81.9287109375,-82.3193359375,-82.7587890625,-83.3447265625,-83.9306640625,-84.4677734375,-85.4931640625,-84.9560546875,-86.7138671875,-87.2509765625,-87.5927734375,-88.1787109375,-88.6669921875,-89.3994140625,-89.7900390625,-89.4482421875,-87.4951171875,-85.7373046875,-85.1025390625,-84.8095703125,-84.3701171875,-83.4423828125,-83.3935546875,-83.4423828125,-83.9794921875,-84.5166015625,-84.7119140625,-84.1259765625,-84.6630859375,-85.2978515625,-85.2490234375,-86.6650390625,-86.6650390625,-86.9580078125,-87.6416015625,-87.9833984375,-88.5693359375,-89.0087890625,-89.8388671875,-90.0341796875,-88.7646484375,-87.4951171875,-86.4697265625,-85.4443359375,-85.2001953125,-84.5654296875,-84.2236328125,-83.4423828125,-83.7841796875,-83.8330078125,-83.8818359375,-84.2236328125,-84.3212890625,-85.3955078125,-85.7373046875,-86.2255859375,-86.9580078125,-87.6904296875,-87.7392578125,-88.4228515625,-88.9111328125,-89.1064453125,-89.8876953125,-90.6689453125,-91.5966796875,-91.8896484375,-89.5947265625,-87.5439453125,-87.0556640625,-86.0302734375,-84.8583984375,-84.4189453125,-83.8818359375,-83.9306640625,-84.4677734375,-84.1259765625,-84.8095703125,-85.4443359375,-86.2255859375,-85.9326171875,-86.8603515625,-87.1044921875,-87.9833984375,-88.4716796875,-89.3017578125,-89.3505859375,-89.7900390625,-90.1318359375,-91.1572265625,-92.0849609375,-92.6220703125,-93.3056640625,-93.9404296875,-91.5478515625,-89.3994140625,-88.1298828125,-87.5439453125,-86.6162109375,-86.9580078125,-86.4208984375,-86.4697265625,-86.6650390625,-86.6650390625,-86.6162109375,-87.3486328125,-87.5927734375,-87.7880859375,-88.7158203125,-88.6669921875,-89.3505859375,-89.9365234375,-90.3759765625,-91.0595703125,-91.9873046875,-92.9150390625,-93.0126953125,-94.1357421875,-94.9658203125,-95.2587890625,-94.7705078125,-92.0361328125,-90.7666015625,-89.5458984375,-89.3017578125,-88.6181640625,-88.1298828125,-88.4228515625,-88.3740234375,-89.0087890625,-88.9111328125,-89.4970703125,-89.3505859375,-89.6923828125,-90.5712890625,-91.0595703125,-91.3037109375,-91.5966796875,-92.3291015625,-92.8662109375,-92.7197265625,-93.7451171875,-93.7451171875,-94.2822265625,-94.0380859375,-91.4990234375,-89.8876953125,-89.6923828125,-88.8134765625,-88.5205078125,-88.2275390625,-87.6904296875,-88.1787109375,-87.9345703125,-88.5205078125,-88.9111328125,-89.3017578125,-89.2041015625,-89.6435546875,-90.7177734375,-91.1572265625,-91.7919921875,-92.5244140625,-92.0849609375,-93.2080078125,-93.4521484375,-93.8427734375,-93.8916015625,-92.5732421875,-90.2783203125,-89.6923828125,-88.4716796875,-88.6181640625,-87.3974609375,-87.8369140625,-87.0068359375,-87.2509765625,-87.6416015625,-87.6904296875,-87.6416015625,-87.8369140625,-88.4228515625,-88.9599609375,-90.1318359375,-90.3759765625,-90.7177734375,-91.3525390625,-91.3525390625,-91.6455078125,-92.4267578125,-93.1591796875,-93.5009765625,-92.2802734375,-90.3759765625,-89.6435546875,-88.2763671875,-87.9345703125,-87.2509765625,-87.0068359375,-86.0302734375,-85.9814453125,-86.1767578125,-86.8115234375,-86.7626953125,-87.2509765625,-88.0322265625,-88.1298828125,-89.3505859375,-90.1806640625,-90.4736328125,-90.8154296875,-90.7177734375,-91.7431640625,-92.6220703125,-93.2080078125,-93.2568359375,-94.3798828125,-94.6728515625,-94.1845703125,-92.1337890625,-90.4736328125,-89.8876953125,-89.3017578125,-88.0322265625,-88.0810546875,-86.8603515625,-87.4462890625,-87.9833984375,-87.7392578125,-88.3251953125,-88.9599609375,-88.8623046875,-90.1318359375,-89.5947265625,-90.9619140625,-91.3037109375,-91.0595703125,-91.4501953125,-92.3779296875,-92.1337890625,-93.1591796875,-93.7451171875,-94.6240234375,-95.1123046875,-93.6962890625,-91.5966796875,-91.0107421875,-89.6923828125,-88.5693359375,-88.3251953125,-88.0322265625,-87.5439453125,-88.1298828125,-88.3740234375,-88.0322265625,-88.6181640625,-89.5458984375,-89.6435546875,-90.1318359375,-90.7666015625,-91.3037109375,-92.0849609375,-91.7919921875,-92.6220703125,-92.7685546875,-94.2333984375,-94.6728515625,-95.6494140625,-95.0634765625,-92.9638671875,-91.4501953125,-90.3271484375,-89.6923828125,-88.7646484375,-87.6416015625,-87.5927734375,-87.4462890625,-88.1787109375,-88.0810546875,-88.2275390625,-88.8134765625,-89.5458984375,-90.2783203125,-90.5712890625,-90.5712890625,-92.0361328125,-92.2802734375,-92.9150390625,-92.9150390625,-94.0380859375,-94.3798828125,-95.0634765625,-96.0888671875,-96.5771484375,-95.7958984375,-93.5986328125,-92.1826171875,-91.0107421875,-90.0830078125,-89.1064453125,-88.6669921875,-88.7646484375,-88.8134765625,-89.3505859375,-88.9599609375,-89.8876953125,-90.1318359375,-90.3271484375,-91.1083984375,-91.0595703125,-92.7685546875,-93.5009765625,-93.4033203125,-93.5986328125,-95.5517578125,-95.5029296875,-96.2353515625,-96.6748046875,-97.3095703125,-97.2607421875,-98.8232421875,-98.9697265625,-97.0166015625,-94.7216796875,-94.2822265625,-93.5986328125,-91.9873046875,-92.3291015625,-91.3525390625,-91.3525390625,-91.8408203125,-92.4755859375,-93.2080078125,-93.2080078125,-93.2080078125,-93.9892578125,-94.2333984375,-94.3798828125,-95.3564453125,-95.7958984375,-96.5771484375,-96.9189453125,-97.2607421875,-97.6025390625,-98.8232421875,-99.0185546875,-99.7998046875,-97.8955078125,-95.6982421875,-94.6728515625,-93.6474609375,-92.5244140625,-92.3291015625,-92.1826171875,-91.9873046875,-92.6220703125,-92.9638671875,-92.9150390625,-93.1591796875,-93.7451171875,-94.0869140625,-94.2822265625,-94.5751953125,-95.6982421875,-96.5283203125,-96.7724609375,-96.9677734375,-98.1396484375,-98.4326171875,-98.9697265625,-100.0439453125,-99.7998046875,-98.7744140625,-96.6259765625,-94.6728515625,-94.0380859375,-93.8916015625,-93.4033203125,-92.4755859375,-92.3779296875,-93.1103515625,-93.4521484375,-93.5498046875,-94.3310546875,-94.7705078125,-94.7705078125,-95.6005859375,-96.0888671875,-96.5771484375,-96.9677734375,-97.6513671875,-98.2373046875,-98.5791015625,-99.6533203125,-100.1416015625,-101.0205078125,-101.5087890625,-102.7783203125,-103.8525390625,-102.5341796875,-100.1416015625,-98.3837890625,-96.9677734375,-96.6259765625,-95.8447265625,-95.7470703125,-95.1123046875,-95.4541015625,-95.5029296875,-96.0400390625,-96.7724609375,-96.5283203125,-97.0166015625,-97.5537109375,-98.6279296875,-98.8232421875,-99.6533203125,-100.0439453125,-100.7763671875,-101.4111328125,-102.0458984375,-103.0712890625,-103.4619140625,-103.9013671875,-105.0732421875,-104.9267578125,-104.7802734375,-102.9736328125,-100.8251953125,-100.1904296875,-99.5068359375,-99.4091796875,-98.1396484375,-98.9208984375,-98.0908203125,-98.1396484375,-98.7744140625,-99.4580078125,-99.0673828125,-99.8974609375,-99.8974609375,-100.6298828125,-101.2158203125,-101.1181640625,-101.9970703125,-101.3623046875,-102.8271484375,-103.5595703125,-104.5361328125,-105.1708984375,-104.5849609375,-102.5341796875,-100.7763671875,-99.7509765625,-99.4091796875,-99.1162109375,-97.9443359375,-97.9931640625,-97.5048828125,-97.8466796875,-98.6767578125,-98.5302734375,-99.5068359375,-99.0185546875,-100.1416015625,-100.9228515625,-101.7529296875,-101.7041015625,-102.6806640625,-102.4853515625,-103.4130859375,-103.3154296875,-104.4873046875,-105.2197265625,-105.0244140625,-102.9736328125,-101.1669921875,-100.4345703125,-99.1650390625,-99.3115234375,-98.3349609375,-97.5048828125,-98.0419921875,-97.8466796875,-98.7255859375,-98.5302734375,-99.1162109375,-99.3115234375,-99.7021484375,-100.6787109375,-101.5576171875,-101.8994140625,-102.0947265625,-102.9248046875,-103.3642578125,-103.4619140625,-105.2197265625,-105.3662109375,-106.3427734375,-106.4892578125,-105.2197265625,-102.2900390625,-101.4111328125,-100.2392578125,-100.1904296875,-98.3837890625,-98.1396484375,-98.2373046875,-97.7978515625,-97.8955078125,-98.9697265625,-99.8486328125,-98.9208984375,-100.3369140625,-101.2158203125,-101.1669921875,-101.8505859375,-102.9248046875,-103.1689453125,-103.5595703125,-104.4384765625,-104.7314453125,-105.5615234375,-105.8056640625,-107.4169921875,-107.5146484375,-107.4658203125,-104.9267578125,-103.0224609375,-101.6552734375,-101.2646484375,-100.7763671875,-100.0927734375,-100.2392578125,-99.7998046875,-100.0927734375,-100.6787109375,-100.0927734375,-100.6787109375,-100.6787109375,-101.5576171875,-101.4599609375,-102.4365234375,-103.2177734375,-103.6572265625,-104.2919921875,-104.7314453125,-105.4638671875,-106.6845703125,-107.0751953125,-107.7587890625,-108.0029296875,-106.5380859375,-103.9013671875,-103.1689453125,-102.8271484375,-102.0947265625,-101.3623046875,-100.2880859375,-100.7763671875,-101.1181640625,-101.2646484375,-101.9482421875,-101.6552734375,-102.1923828125,-102.7783203125,-102.5830078125,-103.5107421875,-104.2431640625,-104.3896484375,-104.6337890625,-105.5126953125,-106.0009765625,-106.8310546875,-106.9775390625,-106.4892578125,-105.1220703125,-103.6572265625,-102.7294921875,-102.2412109375,-101.4599609375,-100.8740234375,-100.0927734375,-99.9951171875,-100.6298828125,-100.9228515625,-100.8740234375,-101.3134765625,-102.0947265625,-102.6318359375,-103.0224609375,-104.0478515625,-104.4873046875,-104.9267578125,-105.2197265625,-106.2451171875,-105.6591796875,-107.3193359375,-107.6123046875,-107.2216796875,-104.9267578125,-103.5107421875,-102.8759765625,-101.3134765625,-101.1181640625,-100.2392578125,-100.0927734375,-99.7509765625,-100.4345703125,-100.1904296875,-100.6787109375,-101.6552734375,-101.9970703125,-102.5830078125,-103.0712890625,-104.0478515625,-104.3408203125,-105.8056640625,-105.7080078125,-106.0498046875,-106.7333984375,-107.1728515625,-108.0517578125,-108.6376953125,-109.8583984375,-109.4677734375,-106.7822265625,-105.4638671875,-104.1943359375,-103.5595703125,-102.4853515625,-102.4365234375,-101.8505859375,-101.9970703125,-102.7294921875,-103.0712890625,-103.2177734375,-104.1943359375,-104.3408203125,-104.9755859375,-105.5126953125,-106.0498046875,-106.7333984375,-107.5146484375,-107.6123046875,-108.4912109375,-109.2236328125,-110.0537109375,-111.0791015625,-112.1044921875,-112.9833984375,-111.2744140625,-109.0283203125,-107.6611328125,-106.9775390625,-106.1474609375,-106.5380859375,-105.5126953125,-105.8544921875,-106.0009765625,-106.5380859375,-106.6357421875,-107.4169921875,-108.0029296875,-108.1982421875,-108.6865234375,-109.6630859375,-109.5654296875,-110.6396484375,-110.3955078125,-111.7138671875,-111.5185546875,-112.5927734375,-113.6669921875,-114.0087890625,-113.2275390625,-110.7373046875,-109.3701171875,-108.5400390625,-108.4912109375,-108.1005859375,-106.9287109375,-106.3916015625,-106.9287109375,-107.3681640625,-107.7099609375,-108.1494140625,-108.1494140625,-108.8330078125,-109.3212890625,-110.1513671875,-111.0302734375,-111.2744140625,-111.7138671875,-111.9580078125,-112.7880859375,-113.7158203125,-113.7646484375,-114.2041015625,-112.4462890625,-110.2001953125,-110.0537109375,-108.9306640625,-108.9794921875,-107.4658203125,-107.8564453125,-106.7822265625,-107.2705078125,-107.3681640625,-107.5634765625,-108.1005859375,-108.9306640625,-109.6142578125,-109.4677734375,-110.7373046875,-111.2744140625,-112.1533203125,-112.5927734375,-112.7880859375,-114.1064453125,-114.2529296875,-114.9365234375,-115.1318359375,-113.9111328125,-111.7138671875,-110.7373046875,-109.3701171875,-109.0283203125,-108.3447265625,-108.1494140625,-107.4169921875,-107.7099609375,-107.7099609375,-108.0029296875,-108.5400390625,-108.6865234375,-109.4677734375,-109.5654296875,-110.1513671875,-110.9326171875,-111.9580078125,-111.9580078125,-112.2998046875,-113.0322265625,-113.8134765625,-114.0576171875,-112.4462890625,-110.5908203125,-109.9560546875,-108.9794921875,-108.2470703125,-108.2958984375,-107.7099609375,-108.1982421875,-108.1494140625,-108.2958984375,-109.0771484375,-108.3935546875,-109.6630859375,-110.2001953125,-110.7861328125,-112.0068359375,-112.6904296875,-113.3740234375,-113.4716796875,-114.3505859375,-115.2294921875,-114.5458984375,-113.0810546875,-111.3720703125,-110.6396484375,-110.5908203125,-110.0537109375,-109.6142578125,-109.5654296875,-109.5166015625,-110.2490234375,-110.7861328125,-110.4443359375,-110.4443359375,-111.0791015625,-111.0302734375,-112.0556640625,-113.2275390625,-114.3994140625,-114.5947265625,-114.7412109375,-116.0595703125,-115.7177734375,-114.4970703125,-112.2998046875,-111.1279296875,-110.5419921875,-110.1025390625,-109.7119140625,-109.9560546875,-109.7119140625,-109.4677734375,-110.1025390625,-110.1025390625,-110.4931640625,-110.8349609375,-110.8837890625,-111.4697265625,-112.3974609375,-113.7646484375,-114.0087890625,-114.6435546875,-115.9619140625,-115.7177734375,-116.3037109375,-116.5966796875,-113.5693359375,-111.4208984375,-110.6884765625,-110.5419921875,-109.6630859375,-108.9306640625,-108.8818359375,-109.1748046875,-109.4189453125,-109.5654296875,-109.2236328125,-109.5166015625,-110.0048828125,-110.6396484375,-111.6162109375,-112.8369140625,-112.7880859375,-113.4716796875,-114.5458984375,-114.6923828125,-116.0107421875,-115.8154296875,-116.5478515625,-116.1083984375,-113.6669921875,-112.6904296875,-111.4208984375,-111.1767578125,-110.5419921875,-109.6630859375,-109.1748046875,-110.0048828125,-109.6630859375,-110.1025390625,-110.4443359375,-110.6884765625,-110.9326171875,-112.0068359375,-112.5439453125,-113.9599609375,-114.5947265625,-114.8876953125,-115.5712890625,-116.5478515625,-117.1337890625,-117.5244140625,-118.2568359375,-118.9892578125,-120.0146484375,-121.2353515625,-120.8447265625,-118.2080078125,-116.3037109375,-115.4736328125,-114.7900390625,-113.1298828125,-113.2763671875,-113.1298828125,-112.7880859375,-113.4716796875,-113.9111328125,-114.5458984375,-114.8876953125,-115.2783203125,-115.6201171875,-116.4013671875,-116.8896484375,-117.6708984375,-117.6708984375,-118.3056640625,-118.2568359375,-120.0146484375,-120.1123046875,-121.3818359375,-121.9189453125,-120.8935546875,-118.3056640625,-117.3291015625,-116.6943359375,-116.2548828125,-116.4990234375,-115.1318359375,-115.1318359375,-115.8154296875,-116.0595703125,-116.4990234375,-116.8896484375,-116.7919921875,-117.4755859375,-118.4521484375,-118.8916015625,-119.8193359375,-120.3564453125,-120.7958984375,-121.5283203125,-122.0166015625,-122.5048828125,-123.0419921875,-122.0654296875,-119.2822265625,-117.5732421875,-117.5732421875,-117.6220703125,-116.9873046875,-115.9619140625,-116.0595703125,-116.0595703125,-116.4990234375,-116.5966796875,-117.8662109375,-117.4755859375,-118.3056640625,-118.9892578125,-119.4287109375,-120.2587890625,-121.3330078125,-121.8701171875,-122.2607421875,-122.2119140625,-123.4326171875,-123.8720703125,-123.5791015625,-121.4306640625,-119.6240234375,-118.7451171875,-118.2568359375,-117.6220703125,-116.9384765625,-116.1572265625,-116.1083984375,-116.0595703125,-116.9384765625,-117.1337890625,-117.1826171875,-118.0126953125,-118.6474609375,-119.3798828125,-120.0146484375,-121.0888671875,-121.8212890625,-121.8212890625,-122.3583984375,-123.4814453125,-123.2373046875,-124.4091796875,-125.1904296875,-124.1650390625,-121.5283203125,-119.6240234375,-119.9169921875,-119.4775390625,-118.4521484375,-117.9150390625,-117.8173828125,-117.4755859375,-117.9150390625,-118.7939453125,-119.0380859375,-119.0380859375,-120.2099609375,-120.6494140625,-121.1376953125,-122.3095703125,-122.4072265625,-122.6025390625,-123.1396484375,-123.7744140625,-124.6044921875,-125.1904296875,-125.8740234375,-126.7041015625,-127.3876953125,-125.3857421875,-122.5537109375,-121.8701171875,-121.4306640625,-120.5029296875,-119.8193359375,-120.0146484375,-119.6240234375,-120.1611328125,-120.5517578125,-120.6494140625,-120.9423828125,-121.4306640625,-121.8701171875,-122.6513671875,-122.9931640625,-123.7744140625,-123.4814453125,-124.5068359375,-125.3369140625,-125.8251953125,-126.3623046875,-126.6552734375,-125.1904296875,-122.5537109375,-121.6259765625,-121.5771484375,-120.5029296875,-120.7958984375,-119.9658203125,-120.1123046875,-120.4052734375,-121.0400390625,-120.3076171875,-120.6005859375,-121.7236328125,-121.8212890625,-122.8955078125,-124.1162109375,-124.2626953125,-124.9462890625,-125.5322265625,-125.7275390625,-126.1669921875,-127.1923828125,-126.3134765625,-124.2138671875,-122.2119140625,-121.4306640625,-121.1376953125,-120.4541015625,-120.1611328125,-119.9658203125,-119.8193359375,-119.5751953125,-119.8193359375,-120.2587890625,-120.6982421875,-121.0400390625,-121.6259765625,-122.6025390625,-122.7978515625,-123.5791015625,-124.3603515625,-124.9951171875,-125.2880859375,-125.5810546875,-126.8505859375,-127.0947265625,-126.1669921875,-123.8720703125,-122.2607421875,-120.7470703125,-120.6494140625,-119.8681640625,-119.6728515625,-119.4287109375,-118.7451171875,-119.3310546875,-119.2333984375,-119.8193359375,-120.5029296875,-121.1376953125,-121.5771484375,-121.6748046875,-122.7978515625,-123.6279296875,-124.0673828125,-125.3369140625,-125.1904296875,-125.9716796875,-125.9228515625,-126.7041015625,-128.1689453125,-128.4619140625,-127.7783203125,-124.7021484375,-123.6279296875,-122.7490234375,-122.1142578125,-121.3330078125,-120.5517578125,-120.4052734375,-120.6982421875,-120.5517578125,-120.6982421875,-121.2841796875,-121.7236328125,-121.6748046875,-122.4560546875,-123.9697265625,-124.5068359375,-124.5068359375,-124.7021484375,-125.0439453125,-126.0205078125,-126.3134765625,-126.7041015625,-127.6806640625,-127.7783203125,-125.9228515625,-123.6279296875,-123.3837890625,-122.1630859375,-121.6748046875,-121.2353515625,-120.8447265625,-120.6982421875,-121.7724609375,-121.8212890625,-121.9189453125,-122.6025390625,-122.9443359375,-123.6279296875,-124.2626953125,-124.8974609375,-125.8251953125,-125.8251953125,-126.1669921875,-126.6552734375,-127.4365234375,-127.6806640625,-126.2646484375,-124.1162109375,-122.8955078125,-122.1630859375,-121.7724609375,-121.3330078125,-120.8447265625,-120.6982421875,-120.6982421875,-120.8935546875,-121.0888671875,-121.1865234375,-121.6259765625,-122.6513671875,-123.3349609375,-124.4091796875,-125.2880859375,-125.7763671875,-125.9716796875,-126.7529296875,-127.1923828125,-127.4853515625,-128.7548828125,-128.9013671875,-127.8759765625,-125.5810546875,-123.9697265625,-123.1396484375,-122.2607421875,-121.7236328125,-121.4306640625,-121.6748046875,-121.5771484375,-121.2353515625,-121.3818359375,-121.9677734375,-122.9443359375,-122.9931640625,-123.9697265625,-124.5068359375,-125.3369140625,-125.8740234375,-126.4599609375,-127.2412109375,-127.2900390625,-128.1689453125,-128.3642578125,-129.6337890625,-129.8779296875,-130.8056640625,-131.4892578125,-131.5869140625,-128.3642578125,-126.4111328125,-125.1904296875,-124.9951171875,-124.0185546875,-122.9931640625,-122.1142578125,-122.1142578125,-122.8466796875,-122.5048828125,-122.7490234375,-123.5302734375,-123.6767578125,-124.6044921875,-124.5068359375,-125.5810546875,-126.3134765625,-127.0458984375,-127.2900390625,-128.2177734375,-129.4384765625,-130.2685546875,-130.5126953125,-131.3916015625,-131.7822265625,-133.1494140625,-132.6611328125,-131.8798828125,-128.8037109375,-127.0458984375,-126.1669921875,-125.6298828125,-125.0439453125,-125.0927734375,-124.4091796875,-124.2626953125,-125.0439453125,-125.3857421875,-125.2880859375,-125.5810546875,-126.1669921875,-126.6552734375,-126.7041015625,-127.5341796875,-128.3642578125,-128.9990234375,-130.2685546875,-130.4150390625,-130.8544921875,-131.5869140625,-132.2216796875,-131.9287109375,-129.7314453125,-128.0712890625,-126.8505859375,-126.4599609375,-126.0693359375,-125.6298828125,-125.3857421875,-125.5322265625,-125.6787109375,-126.1669921875,-125.7763671875,-125.6787109375,-126.0693359375,-126.7529296875,-127.4853515625,-128.3154296875,-128.9501953125,-128.9990234375,-129.6337890625,-130.0732421875,-130.7080078125,-131.5869140625,-130.4150390625,-128.5595703125,-126.8994140625,-126.2646484375,-125.1904296875,-124.9462890625,-124.7021484375,-123.8720703125,-123.9697265625,-124.0673828125,-124.3603515625,-124.1650390625,-124.6533203125,-125.3857421875,-125.7275390625,-126.6064453125,-127.4365234375,-127.5830078125,-128.4619140625,-128.8037109375,-128.9990234375,-130.5615234375,-130.1708984375,-130.0244140625,-127.8271484375,-125.9228515625,-124.7998046875,-124.2626953125,-122.9931640625,-123.2861328125,-122.6513671875,-122.5048828125,-122.7490234375,-122.8466796875,-123.3837890625,-123.3349609375,-123.6767578125,-124.4091796875,-125.0927734375,-126.1181640625,-126.8017578125,-127.2412109375,-127.8759765625,-128.2666015625,-128.5595703125,-129.3408203125,-130.0244140625,-129.9755859375,-129.1943359375,-126.6552734375,-125.3369140625,-124.7509765625,-123.9208984375,-122.7490234375,-122.4072265625,-122.2607421875,-122.3095703125,-122.7001953125,-122.9443359375,-123.0419921875,-123.5302734375,-123.4814453125,-123.9208984375,-124.7021484375,-125.2880859375,-126.0205078125,-126.2158203125,-127.2900390625,-128.0712890625,-128.8037109375,-129.1455078125,-130.0732421875,-130.9521484375,-131.0009765625,-130.8544921875,-128.4130859375,-126.2646484375,-125.1904296875,-125.5810546875,-124.6533203125,-124.4091796875,-124.2138671875,-124.6533203125,-124.6044921875,-125.1416015625,-125.2392578125,-125.4345703125,-126.1669921875,-126.4599609375,-127.2900390625,-128.1201171875,-128.0712890625,-128.8525390625,-129.3408203125,-130.2197265625,-130.7568359375,-131.6357421875,-132.2216796875,-131.2939453125,-129.1455078125,-127.4853515625,-127.2900390625,-126.2158203125,-125.9228515625,-125.4833984375,-125.2880859375,-125.5810546875,-125.6298828125,-125.8740234375,-126.0205078125,-126.2646484375,-126.7529296875,-127.5341796875,-128.3642578125,-128.8037109375,-129.8291015625,-130.1708984375,-130.3662109375,-130.9521484375,-131.9287109375,-131.7333984375,-129.9755859375,-128.1201171875,-126.6064453125,-126.3623046875,-126.2158203125,-125.1904296875,-124.7021484375,-124.4091796875,-124.4091796875,-124.7509765625,-124.6044921875,-125.2392578125,-125.9716796875,-126.8017578125,-127.1923828125,-127.9248046875,-128.8037109375,-129.1455078125,-129.2431640625,-129.9755859375,-130.7568359375,-130.9033203125,-131.6357421875,-133.0517578125,-132.1240234375,-129.0478515625,-128.0224609375,-127.2412109375,-125.8740234375,-125.0927734375,-124.1162109375,-123.8232421875,-123.1396484375,-123.6279296875,-123.4814453125,-124.6044921875,-124.1650390625,-125.0927734375,-125.2880859375,-125.8740234375,-126.8505859375,-127.3388671875,-128.3154296875,-128.4130859375,-129.2431640625,-129.7314453125,-130.2197265625,-131.3916015625,-131.8310546875,-133.1982421875,-133.3447265625,-134.4677734375,-135.1513671875,-135.3466796875,-135.3955078125,-132.3681640625,-129.4873046875,-128.9501953125,-127.6318359375,-127.0947265625,-125.5322265625,-125.3369140625,-125.6787109375,-125.5810546875,-125.6787109375,-125.7275390625,-127.1435546875,-126.6552734375,-127.3388671875,-128.0712890625,-128.9501953125,-129.3896484375,-130.0732421875,-130.8056640625,-131.4892578125,-132.0263671875,-132.5634765625,-133.1005859375,-133.4912109375,-134.7119140625,-134.9560546875,-135.7861328125,-136.3720703125,-135.1513671875,-132.1728515625,-130.8544921875,-130.8544921875,-129.2919921875,-129.5361328125,-128.3154296875,-128.1201171875,-128.9501953125,-129.2919921875,-129.2431640625,-129.1455078125,-129.8291015625,-129.8779296875,-130.9033203125,-130.9521484375,-132.0751953125,-132.6611328125,-133.2470703125,-133.4912109375,-134.1259765625,-135.2978515625,-135.0537109375,-136.3720703125,-135.2001953125,-132.7587890625,-131.5869140625,-131.0986328125,-130.6591796875,-129.8779296875,-128.6572265625,-128.8037109375,-129.3896484375,-129.1943359375,-129.5361328125,-129.8779296875,-129.9267578125,-130.5126953125,-130.6591796875,-131.7822265625,-132.7099609375,-133.1982421875,-133.3447265625,-134.8095703125,-134.7119140625,-135.2490234375,-136.0302734375,-136.5185546875,-134.5166015625,-132.5634765625,-131.0498046875,-130.7568359375,-129.8779296875,-129.0478515625,-128.8037109375,-128.2666015625,-128.7548828125,-129.3408203125,-129.4384765625,-129.3408203125,-129.6337890625,-130.7568359375,-131.4404296875,-132.2705078125,-133.6376953125,-134.1748046875,-134.3701171875,-134.9560546875,-135.1513671875,-135.7373046875,-136.6650390625,-137.2021484375,-137.3974609375,-135.1513671875,-132.6123046875,-132.0751953125,-131.3427734375,-131.1962890625,-130.2685546875,-129.6826171875,-129.8291015625,-130.2685546875,-129.7802734375,-130.9033203125,-131.1962890625,-131.4404296875,-131.6357421875,-132.4169921875,-133.2470703125,-133.9306640625,-134.6142578125,-134.8583984375,-135.3466796875,-135.9814453125,-136.9091796875,-137.7880859375,-137.9345703125,-139.0576171875,-139.8388671875,-138.2275390625,-135.3466796875,-134.5654296875,-133.3935546875,-133.3935546875,-132.8564453125,-132.3681640625,-131.6357421875,-132.9541015625,-133.0517578125,-132.9541015625,-132.9541015625,-133.8330078125,-134.2724609375,-134.3701171875,-135.2978515625,-135.9814453125,-136.4697265625,-137.2021484375,-137.9833984375,-138.2275390625,-138.7646484375,-139.4970703125,-140.7177734375,-140.0341796875,-138.5205078125,-136.2744140625,-134.8095703125,-134.3701171875,-134.0283203125,-133.2470703125,-133.2958984375,-133.3935546875,-133.1005859375,-133.5400390625,-133.1494140625,-134.3212890625,-133.9794921875,-134.6142578125,-135.2490234375,-135.6884765625,-136.9580078125,-136.9580078125,-137.2998046875,-137.4951171875,-138.8134765625,-139.5458984375,-139.7412109375,-139.5947265625,-137.0556640625,-135.9326171875,-133.9306640625,-134.2236328125,-133.7353515625,-132.0751953125,-131.9287109375,-132.2216796875,-132.5146484375,-132.6123046875,-132.7587890625,-133.2470703125,-134.2724609375,-134.3212890625,-135.2978515625,-135.4931640625,-136.7626953125,-136.9091796875,-137.5439453125,-137.8857421875,-138.8134765625,-138.9111328125,-139.8388671875,-140.0341796875,-138.5205078125,-136.3720703125,-135.5419921875,-134.5166015625,-133.7353515625,-132.9052734375,-132.5146484375,-131.9775390625,-132.2705078125,-132.4658203125,-132.2705078125,-132.7587890625,-133.5400390625,-134.1748046875,-134.6142578125,-135.5908203125,-136.1279296875,-136.0791015625,-137.2509765625,-137.4462890625,-137.7880859375,-138.6181640625,-139.2041015625,-140.2294921875,-140.8154296875,-141.4990234375,-142.7197265625,-141.3525390625,-138.3251953125,-136.5673828125,-135.9326171875,-135.1513671875,-134.7607421875,-133.5888671875,-133.2958984375,-133.7353515625,-134.1259765625,-134.1259765625,-134.4189453125,-135.1513671875,-135.2978515625,-135.7861328125,-136.5185546875,-136.7626953125,-137.7392578125,-138.6181640625,-138.8134765625,-139.3505859375,-140.1318359375,-140.0341796875,-140.5712890625,-142.1826171875,-141.9873046875,-139.3505859375,-137.4951171875,-136.4208984375,-136.7626953125,-136.0302734375,-135.1513671875,-135.1025390625,-134.5654296875,-135.4931640625,-135.7373046875,-135.8349609375,-135.9814453125,-136.7138671875,-136.9091796875,-137.4462890625,-138.6181640625,-138.7158203125,-138.6669921875,-139.3017578125,-139.8388671875,-140.5224609375,-141.2060546875,-141.9384765625,-140.2294921875,-138.0810546875,-137.2509765625,-136.4697265625,-136.4208984375,-134.9072265625,-134.4677734375,-134.7119140625,-134.8583984375,-134.8095703125,-135.5419921875,-135.0537109375,-136.0302734375,-136.4697265625,-137.2998046875,-137.9833984375,-138.2763671875,-139.3505859375,-139.3994140625,-140.3759765625,-140.2783203125,-140.5712890625,-141.7919921875,-141.3525390625,-139.7412109375,-137.4951171875,-137.0068359375,-136.4697265625,-135.9814453125,-135.1513671875,-134.4189453125,-134.3701171875,-134.4189453125,-135.0537109375,-134.2724609375,-135.1025390625,-135.6396484375,-136.3232421875,-137.1533203125,-137.5439453125,-138.4228515625,-138.4716796875,-138.9111328125,-139.3505859375,-139.9853515625,-140.1806640625,-141.0595703125,-141.9384765625,-141.5478515625,-139.3505859375,-137.2021484375,-136.8115234375,-135.3955078125,-135.2490234375,-133.8818359375,-133.4423828125,-133.2958984375,-133.5888671875,-133.7841796875,-134.1259765625,-134.2724609375,-135.1025390625,-135.7861328125,-136.4208984375,-136.6162109375,-137.3486328125,-138.0322265625,-138.6181640625,-138.8134765625,-139.5458984375,-140.0830078125,-140.9130859375,-141.8408203125,-142.4755859375,-143.2568359375,-143.6962890625,-142.2314453125,-139.6923828125,-137.6416015625,-136.7138671875,-136.1279296875,-135.5908203125,-135.2978515625,-135.3955078125,-135.5908203125,-135.8349609375,-136.4208984375,-136.5185546875,-136.2744140625,-136.1767578125,-137.2021484375,-137.0068359375,-138.2275390625,-139.1552734375,-139.5947265625,-140.5224609375,-140.7177734375,-140.9619140625,-142.3291015625,-142.2314453125,-142.8173828125,-142.8662109375,-140.7177734375,-138.6669921875,-137.7392578125,-136.9580078125,-136.5185546875,-136.1767578125,-136.0791015625,-136.0302734375,-136.2744140625,-135.8837890625,-136.0791015625,-136.1767578125,-136.7138671875,-137.7392578125,-137.8857421875,-138.2275390625,-139.3017578125,-139.6435546875,-140.1806640625,-140.2294921875,-141.0595703125,-141.7431640625,-141.5478515625,-141.6455078125,-138.2275390625,-137.2509765625,-136.4208984375,-135.6396484375,-135.1513671875,-134.5166015625,-134.6142578125,-134.0283203125,-134.7607421875,-134.8583984375,-135.2490234375,-134.9072265625,-135.6884765625,-136.5673828125,-137.0068359375,-138.1298828125,-138.3740234375,-139.4970703125,-139.5458984375,-140.1806640625,-140.2783203125,-141.1083984375,-141.3037109375,-142.1826171875,-142.0849609375,-139.7900390625,-138.0810546875,-136.9580078125,-136.1279296875,-135.7861328125,-135.5419921875,-134.7119140625,-134.2236328125,-134.5654296875,-134.0771484375,-134.6142578125,-134.7607421875,-135.9326171875,-136.3232421875,-136.8603515625,-137.8369140625,-137.9345703125,-138.7646484375,-139.3505859375,-139.6923828125,-140.0341796875,-140.7177734375,-141.4013671875,-141.7431640625,-143.6962890625,-144.0869140625,-143.1103515625,-139.7900390625,-138.2763671875,-136.6650390625,-136.0791015625,-135.3955078125,-134.8583984375,-134.5654296875,-135.3466796875,-135.3466796875,-135.6396484375,-136.0302734375,-136.7138671875,-137.2021484375,-137.4951171875,-138.2275390625,-138.4716796875,-139.0087890625,-139.6923828125,-140.3759765625,-140.7666015625,-141.5966796875,-142.6708984375,-143.5498046875,-144.4287109375,-143.8427734375,-142.0849609375,-139.8876953125,-138.8134765625,-137.9345703125,-137.4462890625,-137.0556640625,-136.5185546875,-136.8115234375,-137.3486328125,-137.7880859375,-137.9345703125,-137.8369140625,-137.9345703125,-138.5693359375,-139.4482421875,-140.3271484375,-140.1806640625,-140.7666015625,-141.4990234375,-141.7919921875,-142.9150390625,-143.5009765625,-143.4521484375,-141.0107421875,-139.3505859375,-138.7646484375,-137.5927734375,-137.2509765625,-137.0556640625,-136.5673828125,-136.8115234375,-136.9580078125,-137.2509765625,-137.2998046875,-137.7392578125,-138.5205078125,-139.1064453125,-139.7412109375,-140.5224609375,-141.1083984375,-141.5966796875,-141.9873046875,-142.1337890625,-142.7685546875,-143.4033203125,-141.8896484375,-139.7900390625,-138.5205078125,-137.6416015625,-137.1533203125,-137.1533203125,-136.9091796875,-136.3232421875,-136.7626953125,-136.5673828125,-136.6162109375,-136.8115234375,-137.4951171875,-137.7392578125,-138.8623046875,-139.7900390625,-140.0341796875,-141.1083984375,-141.4990234375,-141.6455078125,-141.6943359375,-141.8408203125,-143.0615234375,-143.3544921875,-141.3037109375,-139.2529296875,-138.2275390625,-137.5439453125,-136.4208984375,-136.6650390625,-135.2978515625,-135.5419921875,-136.7138671875,-136.0302734375,-136.4697265625,-137.3486328125,-137.7880859375,-138.6669921875,-139.2041015625,-139.3505859375,-140.2783203125,-140.7177734375,-141.1083984375,-142.3779296875,-143.2080078125,-143.2568359375,-144.2822265625,-145.4052734375,-145.6494140625,-146.1865234375,-147.1630859375,-147.4072265625,-147.0166015625,-144.0869140625,-141.3525390625,-140.5712890625,-140.0341796875,-138.9111328125,-139.0087890625,-138.7646484375,-138.8134765625,-139.0576171875,-140.1806640625,-139.4970703125,-140.0341796875,-140.4248046875,-140.6689453125,-141.1083984375,-142.0849609375,-142.2802734375,-143.0615234375,-143.1591796875,-143.7451171875,-144.4775390625,-145.0146484375,-145.9912109375,-146.3330078125,-145.4541015625,-142.4267578125,-140.4736328125,-139.9853515625,-139.9365234375,-139.0576171875,-138.8134765625,-138.2275390625,-138.5693359375,-139.0576171875,-139.0576171875,-139.1552734375,-139.4482421875,-139.8876953125,-140.5712890625,-140.9130859375,-141.6455078125,-142.4755859375,-142.2314453125,-142.8662109375,-143.1103515625,-144.2822265625,-144.4775390625,-144.2333984375,-140.8154296875,-139.4482421875,-138.7646484375,-138.5693359375,-137.9833984375,-137.7392578125,-137.3486328125,-137.2509765625,-137.4462890625,-137.2509765625,-138.0322265625,-138.0322265625,-138.4228515625,-139.4970703125,-140.2783203125,-140.6201171875,-141.4013671875,-142.5732421875,-142.8662109375,-142.8173828125,-143.2568359375,-143.9404296875,-144.8681640625,-144.2822265625,-141.8408203125,-139.8876953125,-139.0576171875,-138.0810546875,-136.8603515625,-136.5185546875,-136.7138671875,-136.2255859375,-136.2744140625,-136.7138671875,-137.0556640625,-137.6416015625,-137.6416015625,-138.4228515625,-138.8134765625,-139.8876953125,-140.2783203125,-140.6201171875,-141.1572265625,-141.8896484375,-142.0849609375,-142.8662109375,-143.7451171875,-144.6240234375,-144.7216796875,-143.4521484375,-141.0107421875,-139.6923828125,-138.9111328125,-138.6669921875,-137.4462890625,-136.9580078125,-137.0556640625,-137.2021484375,-137.7880859375,-137.2998046875,-138.7158203125,-138.9111328125,-139.5458984375,-139.7900390625,-140.7177734375,-141.3525390625,-141.7919921875,-141.9384765625,-142.6220703125,-143.0615234375,-143.6962890625,-144.7705078125,-145.6982421875,-145.1611328125,-144.0380859375
