PPG_subj_09,30,M,N,Non-diabetic,107,34.6702,Forehead,0.185546875,0.185546875,0.185546875,0.185546875,0.185546875,0.185546875,92.4169921875,-123.8232421875,-124.4091796875,-125.3857421875,-126.7529296875,-126.8994140625,-127.6806640625,-128.3642578125,-128.7548828125,-129.0478515625,-129.3408203125,-129.9267578125,-131.1962890625,-131.8310546875,-131.7822265625,-131.1962890625,-127.2412109375,-123.6767578125,-122.3095703125,-121.6259765625,-120.1611328125,-120.0146484375,-120.0634765625,-121.2841796875,-121.4794921875,-121.6259765625,-121.8701171875,-122.9931640625,-123.0908203125,-123.6767578125,-124.9462890625,-125.6787109375,-126.6064453125,-127.0458984375,-128.4130859375,-128.9013671875,-129.1455078125,-130.0244140625,-129.7802734375,-131.0009765625,-131.5869140625,-132.0263671875,-133.1005859375,-132.9052734375,-130.7568359375,-126.8994140625,-124.0673828125,-123.0908203125,-122.3583984375,-121.6748046875,-121.5771484375,-122.0166015625,-122.3583984375,-122.9443359375,-122.7978515625,-123.2861328125,-123.6279296875,-124.3603515625,-125.5810546875,-126.1669921875,-126.7529296875,-128.2177734375,-128.0712890625,-128.9501953125,-129.2919921875,-129.8291015625,-130.4150390625,-131.0986328125,-131.7333984375,-132.4658203125,-133.0517578125,-133.0029296875,-131.2451171875,-126.8994140625,-124.9951171875,-124.1162109375,-123.6279296875,-123.2861328125,-124.0185546875,-124.7998046875,-124.8974609375,-124.6044921875,-124.8486328125,-125.2880859375,-125.4345703125,-126.0205078125,-127.0458984375,-127.9248046875,-128.1689453125,-128.9013671875,-129.1943359375,-129.8779296875,-130.2197265625,-130.8056640625,-131.0986328125,-132.2216796875,-132.3681640625,-132.9541015625,-131.4404296875,-128.0224609375,-124.8486328125,-123.6767578125,-123.1396484375,-123.0908203125,-122.4560546875,-124.0185546875,-124.2138671875,-124.0673828125,-124.5068359375,-123.9208984375,-124.3115234375,-124.8974609375,-125.8740234375,-126.9970703125,-127.4365234375,-128.0712890625,-128.4619140625,-129.1455078125,-129.6337890625,-130.3662109375,-130.6591796875,-131.3427734375,-131.7333984375,-132.5634765625,-132.3681640625,-130.0732421875,-126.6064453125,-124.1650390625,-122.7978515625,-121.5771484375,-121.5771484375,-121.1865234375,-122.1142578125,-122.3095703125,-122.5048828125,-122.7978515625,-122.5537109375,-122.9443359375,-124.0185546875,-124.6533203125,-125.3369140625,-126.0693359375,-126.6064453125,-127.3388671875,-128.1201171875,-128.8037109375,-128.8525390625,-129.4873046875,-130.0732421875,-130.4638671875,-131.0498046875,-131.4404296875,-131.5380859375,-127.3876953125,-124.5556640625,-122.3095703125,-121.3818359375,-120.7470703125,-120.4541015625,-120.7470703125,-121.0888671875,-121.2841796875,-121.9677734375,-121.8212890625,-122.3583984375,-123.0419921875,-123.3837890625,-124.3603515625,-125.8740234375,-125.8740234375,-126.9482421875,-127.2900390625,-127.6806640625,-128.2177734375,-129.2431640625,-130.0244140625,-130.0732421875,-130.8056640625,-131.8310546875,-131.9775390625,-130.2685546875,-126.5576171875,-124.0185546875,-123.0419921875,-122.6025390625,-122.4072265625,-122.7001953125,-123.4814453125,-123.7255859375,-123.3837890625,-123.3349609375,-123.8720703125,-124.6533203125,-125.5322265625,-125.7275390625,-126.2158203125,-127.2412109375,-128.1689453125,-128.3642578125,-129.0966796875,-129.2919921875,-129.3896484375,-129.9267578125,-131.0009765625,-131.0498046875,-131.3916015625,-129.4873046875,-126.1181640625,-123.5302734375,-123.0908203125,-122.1630859375,-122.4072265625,-122.6025390625,-123.2861328125,-123.4326171875,-123.1396484375,-123.4326171875,-123.0419921875,-123.9208984375,-124.5068359375,-125.3857421875,-126.0205078125,-126.9482421875,-127.1435546875,-127.4853515625,-128.4619140625,-128.6083984375,-129.2919921875,-129.4873046875,-130.1708984375,-130.9521484375,-128.6572265625,-124.9951171875,-122.0654296875,-120.8935546875,-120.4541015625,-120.3076171875,-119.7705078125,-121.3330078125,-121.0400390625,-120.9912109375,-121.3330078125,-121.0400390625,-121.0888671875,-122.4560546875,-123.0908203125,-123.7744140625,-124.4091796875,-124.9462890625,-125.2392578125,-126.0205078125,-126.5576171875,-127.1923828125,-127.6806640625,-128.5595703125,-129.2431640625,-128.6572265625,-125.2392578125,-122.2119140625,-119.4775390625,-118.6962890625,-117.7197265625,-117.5732421875,-117.8173828125,-118.3056640625,-118.3544921875,-118.5498046875,-118.7939453125,-118.5498046875,-119.1357421875,-120.5029296875,-121.1376953125,-122.0654296875,-122.3583984375,-123.5791015625,-124.0185546875,-124.8974609375,-125.2880859375,-125.9228515625,-126.3623046875,-126.6552734375,-127.6806640625,-127.4853515625,-126.3134765625,-122.1630859375,-119.2333984375,-116.9873046875,-116.7919921875,-115.9130859375,-115.2294921875,-116.0107421875,-116.8896484375,-117.3779296875,-117.4267578125,-117.2314453125,-118.5009765625,-118.6474609375,-120.0634765625,-120.2587890625,-121.3330078125,-122.3583984375,-122.9931640625,-123.3349609375,-124.5556640625,-125.2880859375,-125.8740234375,-126.4599609375,-126.6064453125,-127.7294921875,-128.4619140625,-128.0712890625,-124.7998046875,-121.7724609375,-119.6728515625,-118.6962890625,-117.6220703125,-118.2568359375,-118.3544921875,-119.0869140625,-119.0869140625,-119.6728515625,-119.9169921875,-119.9658203125,-120.6005859375,-120.8935546875,-122.3583984375,-122.7978515625,-124.1162109375,-124.5068359375,-125.3369140625,-125.9228515625,-126.6552734375,-126.8017578125,-127.7783203125,-127.7783203125,-129.0966796875,-128.4619140625,-126.8505859375,-123.5791015625,-120.6982421875,-120.0634765625,-119.8681640625,-119.3310546875,-119.7705078125,-120.8935546875,-121.2353515625,-121.0400390625,-121.1376953125,-120.6982421875,-121.9189453125,-122.5537109375,-122.7001953125,-124.1650390625,-124.7021484375,-124.7998046875,-125.7763671875,-126.1669921875,-127.0458984375,-127.0947265625,-128.6083984375,-128.3642578125,-128.9501953125,-127.9248046875,-124.5556640625,-121.7236328125,-120.1123046875,-119.8193359375,-119.0869140625,-119.4775390625,-119.7705078125,-120.9423828125,-120.2099609375,-120.4541015625,-120.4052734375,-120.7958984375,-121.9189453125,-122.8955078125,-123.3349609375,-123.8720703125,-124.8974609375,-125.4345703125,-126.0205078125,-126.5087890625,-127.4853515625,-128.0224609375,-128.6083984375,-128.5595703125,-129.6826171875,-128.5107421875,-125.0439453125,-121.6259765625,-120.0634765625,-119.2333984375,-118.3544921875,-118.7451171875,-118.2568359375,-119.5751953125,-119.8193359375,-119.7705078125,-120.0634765625,-120.2099609375,-120.5517578125,-121.5283203125,-122.0166015625,-123.0908203125,-123.7255859375,-124.0185546875,-125.3369140625,-125.4833984375,-125.8740234375,-126.8994140625,-127.2900390625,-127.6806640625,-128.2177734375,-129.1455078125,-128.7060546875,-126.2646484375,-121.8701171875,-119.8681640625,-118.4521484375,-118.0615234375,-118.3056640625,-118.5009765625,-118.8427734375,-119.2822265625,-119.1845703125,-119.0380859375,-119.4287109375,-120.1123046875,-120.8935546875,-120.9423828125,-122.2119140625,-123.2861328125,-124.1162109375,-124.8486328125,-125.3857421875,-125.6787109375,-126.6064453125,-126.6552734375,-127.5830078125,-128.6083984375,-128.9013671875,-129.6337890625,-129.2919921875,-127.7294921875,-123.5791015625,-121.6748046875,-120.6494140625,-120.3076171875,-120.0146484375,-120.0634765625,-120.7958984375,-121.2353515625,-120.7470703125,-120.3076171875,-121.0888671875,-121.7236328125,-122.8466796875,-123.3837890625,-123.9208984375,-124.9462890625,-125.3369140625,-125.4345703125,-126.2646484375,-126.8505859375,-127.7783203125,-128.1201171875,-128.2666015625,-129.3408203125,-128.9501953125,-126.3623046875,-123.0908203125,-121.1376953125,-120.3076171875,-120.1611328125,-119.9169921875,-120.2099609375,-120.6982421875,-120.9912109375,-120.8447265625,-120.7958984375,-121.0400390625,-121.7236328125,-122.5537109375,-123.3349609375,-123.9697265625,-124.9462890625,-125.0439453125,-125.8251953125,-126.7529296875,-126.4111328125,-127.4365234375,-127.8271484375,-128.4619140625,-127.8271484375,-125.4833984375,-121.9677734375,-120.4052734375,-118.8427734375,-118.5498046875,-118.0615234375,-118.5498046875,-119.0869140625,-119.2333984375,-119.1845703125,-118.9404296875,-119.5751953125,-120.0146484375,-120.2587890625,-121.5771484375,-122.4072265625,-122.5048828125,-123.4326171875,-124.4091796875,-124.6533203125,-125.4345703125,-125.9716796875,-126.5087890625,-127.1435546875,-126.9970703125,-124.7509765625,-120.8447265625,-118.2080078125,-117.3779296875,-116.8408203125,-115.7666015625,-116.0107421875,-117.1337890625,-117.1826171875,-116.8408203125,-117.0361328125,-117.5244140625,-117.7197265625,-118.5009765625,-119.9658203125,-120.7958984375,-121.2841796875,-121.8212890625,-123.1396484375,-122.8955078125,-124.2138671875,-124.2626953125,-125.3369140625,-126.0693359375,-126.3134765625,-126.5576171875,-124.9462890625,-120.7958984375,-117.7197265625,-116.3037109375,-115.8154296875,-115.5712890625,-115.4248046875,-116.5966796875,-117.0849609375,-116.9384765625,-117.2314453125,-117.4267578125,-117.9638671875,-118.9404296875,-119.4287109375,-120.5517578125,-121.1376953125,-122.1630859375,-122.4072265625,-123.7744140625,-123.5791015625,-124.2138671875,-124.9951171875,-125.6298828125,-125.8740234375,-126.9970703125,-126.4599609375,-123.8232421875,-120.2099609375,-118.3056640625,-117.7197265625,-116.7919921875,-116.5966796875,-117.2314453125,-117.5732421875,-117.4755859375,-117.5732421875,-117.5244140625,-117.5244140625,-118.5009765625,-119.5751953125,-120.2099609375,-120.8935546875,-121.6748046875,-122.0166015625,-122.8955078125,-123.5302734375,-123.5302734375,-124.1162109375,-125.2392578125,-125.8740234375,-126.2646484375,-124.3115234375,-120.6982421875,-117.6220703125,-116.3525390625,-115.7666015625,-114.9853515625,-114.6923828125,-116.0107421875,-116.6943359375,-116.4990234375,-116.3037109375,-117.0361328125,-117.3779296875,-117.9638671875,-119.0869140625,-119.2333984375,-120.7958984375,-121.1376953125,-121.3818359375,-122.2607421875,-122.1630859375,-123.3349609375,-123.4814453125,-124.2138671875,-125.0439453125,-125.3369140625,-125.4345703125,-121.2353515625,-117.1337890625,-115.7177734375,-114.8388671875,-113.9111328125,-113.7646484375,-113.7646484375,-114.5947265625,-115.1318359375,-115.2294921875,-115.1318359375,-115.3759765625,-116.3525390625,-116.7919921875,-117.6708984375,-118.8916015625,-119.5263671875,-119.7705078125,-121.0888671875,-121.2353515625,-122.4072265625,-122.9931640625,-123.1396484375,-123.6279296875,-124.4580078125,-125.0927734375,-125.5322265625,-125.4345703125,-123.4814453125,-118.4033203125,-116.2060546875,-114.7412109375,-113.6181640625,-113.5693359375,-112.9345703125,-113.6669921875,-113.9111328125,-114.0087890625,-114.2529296875,-114.4482421875,-114.9853515625,-116.4013671875,-117.3291015625,-117.8662109375,-118.7939453125,-119.6240234375,-120.2099609375,-120.9912109375,-121.2353515625,-122.4560546875,-122.7978515625,-123.7255859375,-124.2138671875,-124.2138671875,-125.0439453125,-126.1669921875,-126.3623046875,-125.5810546875,-122.0654296875,-117.4267578125,-116.4990234375,-115.2294921875,-115.1318359375,-114.8388671875,-115.0830078125,-115.7177734375,-115.7666015625,-116.4013671875,-116.6455078125,-116.8408203125,-117.5732421875,-118.6962890625,-119.0869140625,-120.0146484375,-121.1865234375,-121.2841796875,-121.6748046875,-122.6025390625,-122.9931640625,-123.2373046875,-124.3603515625,-124.5068359375,-125.4833984375,-126.4111328125,-127.0947265625,-126.7529296875,-123.4814453125,-119.8681640625,-118.1591796875,-116.9384765625,-117.0361328125,-117.1826171875,-117.7685546875,-118.2080078125,-117.7197265625,-118.6474609375,-118.1103515625,-119.0869140625,-119.5263671875,-120.3564453125,-120.9912109375,-121.6259765625,-122.4560546875,-123.0419921875,-123.8232421875,-123.9697265625,-124.9462890625,-125.6298828125,-125.7763671875,-126.4111328125,-127.6806640625,-127.7783203125,-126.3134765625,-122.3095703125,-120.1123046875,-118.4033203125,-118.1591796875,-117.7197265625,-117.1337890625,-118.2568359375,-118.6474609375,-118.3056640625,-119.1357421875,-119.2333984375,-119.4775390625,-119.8193359375,-120.7470703125,-121.7724609375,-122.0654296875,-123.0419921875,-123.7744140625,-124.4580078125,-124.6533203125,-124.7998046875,-125.3369140625,-126.4111328125,-127.2900390625,-128.3154296875,-128.0712890625,-128.1689453125,-125.1416015625,-121.7236328125,-119.7705078125,-118.3056640625,-118.1591796875,-117.9150390625,-117.3779296875,-118.3544921875,-118.5009765625,-118.8427734375,-119.1357421875,-118.8916015625,-120.2099609375,-120.8447265625,-120.6005859375,-121.8212890625,-122.2119140625,-123.1396484375,-124.5068359375,-124.8486328125,-125.0927734375,-126.2158203125,-126.0693359375,-126.7529296875,-127.6806640625,-128.4130859375,-129.4384765625,-129.7802734375,-127.4365234375,-124.3603515625,-120.9912109375,-119.5263671875,-118.3544921875,-117.7685546875,-117.4755859375,-117.8173828125,-118.5498046875,-119.0380859375,-118.6962890625,-118.3056640625,-119.2333984375,-120.0634765625,-121.0400390625,-121.4306640625,-122.3583984375,-123.1884765625,-124.1162109375,-124.3603515625,-124.8486328125,-125.5322265625,-125.9716796875,-126.7529296875,-127.4853515625,-128.0712890625,-128.7548828125,-129.2919921875,-130.1708984375,-131.0498046875,-130.2197265625,-126.6552734375,-123.2373046875,-121.1865234375,-120.6005859375,-119.9658203125,-119.5751953125,-120.0146484375,-120.3564453125,-120.6982421875,-120.7470703125,-120.5517578125,-120.2587890625,-121.3818359375,-121.9189453125,-122.6513671875,-123.5791015625,-123.8720703125,-124.8974609375,-125.4833984375,-125.9716796875,-125.9716796875,-126.9482421875,-127.2900390625,-127.6318359375,-128.5107421875,-129.2431640625,-129.3896484375,-128.1689453125,-124.8486328125,-122.0654296875,-120.2587890625,-119.6240234375,-120.1611328125,-119.5751953125,-120.5029296875,-120.7470703125,-120.4541015625,-120.6005859375,-120.3564453125,-120.9912109375,-121.0888671875,-122.4072265625,-122.5537109375,-123.2861328125,-123.9697265625,-124.7021484375,-124.9951171875,-125.5322265625,-125.6298828125,-126.5576171875,-126.9970703125,-127.5341796875,-128.2666015625,-127.4365234375,-123.8232421875,-120.8935546875,-119.0869140625,-118.9892578125,-117.6220703125,-117.2802734375,-117.5244140625,-118.1103515625,-118.5009765625,-117.8662109375,-118.2080078125,-118.6474609375,-119.0869140625,-120.1123046875,-120.8447265625,-121.2353515625,-121.8212890625,-122.7001953125,-122.8466796875,-123.8232421875,-123.8232421875,-124.5068359375,-125.1904296875,-126.0693359375,-126.3623046875,-126.5087890625,-124.0185546875,-119.9169921875,-118.1591796875,-116.4013671875,-115.7666015625,-114.8388671875,-114.9853515625,-115.6689453125,-115.9130859375,-115.8154296875,-116.2548828125,-116.6943359375,-116.6455078125,-116.9873046875,-118.0126953125,-119.0380859375,-119.4287109375,-120.2099609375,-121.0400390625,-121.5283203125,-122.3095703125,-122.1630859375,-123.2861328125,-123.7744140625,-123.7744140625,-124.6533203125,-125.0927734375,-126.0693359375,-125.1416015625,-121.6748046875,-118.3056640625,-116.4990234375,-114.9853515625,-114.9365234375,-114.1552734375,-114.7412109375,-115.3271484375,-115.5224609375,-115.6689453125,-115.1318359375,-116.4013671875,-116.9384765625,-118.2080078125,-118.9892578125,-119.0869140625,-120.3564453125,-120.9423828125,-121.2841796875,-121.8212890625,-122.1630859375,-123.3837890625,-123.3349609375,-124.8486328125,-125.6787109375,-126.1181640625,-126.6064453125,-127.4365234375,-127.1923828125,-125.2880859375,-121.3818359375,-119.8681640625,-118.2568359375,-117.9638671875,-117.5732421875,-117.7197265625,-117.9150390625,-118.1591796875,-118.5009765625,-118.4521484375,-118.7451171875,-119.6728515625,-120.1123046875,-120.9423828125,-121.7724609375,-122.6513671875,-122.5048828125,-123.7255859375,-124.2138671875,-124.6533203125,-124.9462890625,-124.8974609375,-126.8994140625,-126.9482421875,-128.1689453125,-127.9736328125,-128.3154296875,-126.8994140625,-122.6513671875,-120.7470703125,-120.0146484375,-119.5751953125,-118.9404296875,-119.0380859375,-120.2587890625,-120.2587890625,-119.5263671875,-119.3310546875,-119.5751953125,-120.6982421875,-121.3330078125,-121.8212890625,-122.6513671875,-123.2861328125,-123.7255859375,-124.4091796875,-124.9951171875,-125.6298828125,-126.2158203125,-126.3623046875,-127.2412109375,-128.4130859375,-128.3154296875,-126.6552734375,-122.7490234375,-120.8935546875,-119.4287109375,-118.9892578125,-118.6474609375,-118.3544921875,-118.8916015625,-118.9404296875,-119.0380859375,-119.0869140625,-119.8193359375,-119.7216796875,-120.6982421875,-121.2841796875,-121.8701171875,-122.2119140625,-122.9443359375,-124.0673828125,-124.6533203125,-124.7998046875,-125.2392578125,-125.8740234375,-126.0693359375,-127.1923828125,-127.7294921875,-127.2412109375,-125.2392578125,-121.4794921875,-119.2333984375,-118.2568359375,-117.5244140625,-116.5966796875,-116.5966796875,-116.8896484375,-117.6220703125,-117.6708984375,-117.3779296875,-117.6220703125,-117.7685546875,-118.9404296875,-119.0380859375,-120.1123046875,-120.7470703125,-121.2353515625,-122.1142578125,-122.2607421875,-122.6513671875,-123.5302734375,-123.8232421875,-124.7509765625,-125.1416015625,-126.1669921875,-126.2646484375,-126.1181640625,-123.7255859375,-119.8193359375,-117.6708984375,-116.4990234375,-115.3759765625,-114.7412109375,-115.1318359375,-115.3759765625,-115.7666015625,-115.6201171875,-115.6201171875,-116.1572265625,-116.4013671875,-116.7431640625,-118.1103515625,-118.2080078125,-119.4287109375,-120.0634765625,-120.4052734375,-120.8935546875,-121.6748046875,-122.7001953125,-122.7490234375,-122.9931640625,-123.7255859375,-124.4091796875,-125.5322265625,-125.7275390625,-126.0693359375,-123.8720703125,-120.5029296875,-118.0615234375,-116.1572265625,-115.8154296875,-115.0830078125,-114.3505859375,-115.1806640625,-115.5712890625,-115.9619140625,-115.6201171875,-115.9130859375,-116.5478515625,-116.8408203125,-118.0615234375,-118.6962890625,-119.4287109375,-120.1611328125,-120.1123046875,-121.0888671875,-121.4306640625,-121.9189453125,-122.5537109375,-122.8466796875,-123.8232421875,-124.1650390625,-125.0439453125,-125.3857421875,-123.7255859375,-120.0146484375,-116.8896484375,-115.8642578125,-115.2294921875,-115.0830078125,-114.8876953125,-115.6201171875,-115.8642578125,-115.5712890625,-115.6201171875,-115.9619140625,-116.3037109375,-117.1337890625,-117.5732421875,-118.6474609375,-119.4287109375,-120.0146484375,-120.8447265625,-121.2353515625,-121.5771484375,-121.5771484375,-122.4072265625,-122.8955078125,-123.9208984375,-123.6279296875,-124.2138671875,-121.2353515625,-117.3779296875,-115.9130859375,-114.9365234375,-113.8134765625,-113.2275390625,-113.0322265625,-113.8134765625,-114.3505859375,-114.5947265625,-114.3505859375,-114.8876953125,-115.4248046875,-115.9130859375,-116.7919921875,-117.2802734375,-118.1103515625,-118.6474609375,-119.9169921875,-120.1611328125,-120.6982421875,-120.7958984375,-121.4306640625,-122.1142578125,-123.2861328125,-123.7744140625,-123.8232421875,-123.8720703125,-120.3564453125,-117.0361328125,-114.5458984375,-113.6669921875,-112.9833984375,-112.7392578125,-112.4951171875,-113.5205078125,-113.6669921875,-113.8134765625,-114.0576171875,-114.6435546875,-115.4248046875,-115.9619140625,-116.4501953125,-117.2314453125,-117.9150390625,-118.6962890625,-119.1845703125,-120.4052734375,-120.8447265625,-121.3330078125,-121.7236328125,-122.3095703125,-122.5048828125,-123.3349609375,-124.5556640625,-124.7509765625,-123.9208984375,-120.4541015625,-117.1826171875,-115.4736328125,-114.0576171875,-113.1787109375,-113.2275390625,-113.8623046875,-114.6435546875,-114.7900390625,-114.1552734375,-115.2294921875,-115.4736328125,-115.8642578125,-116.6943359375,-117.7685546875,-117.8662109375,-118.8427734375,-119.5751953125,-120.0634765625,-120.6982421875,-120.6494140625,-121.8212890625,-122.4560546875,-123.2861328125,-123.5302734375,-124.5068359375,-125.1416015625,-124.9462890625,-121.8701171875,-119.2333984375,-117.4755859375,-116.5478515625,-116.1572265625,-115.7666015625,-116.2548828125,-117.0849609375,-116.5478515625,-116.8408203125,-116.4501953125,-116.9873046875,-117.6220703125,-118.0615234375,-119.1357421875,-120.1611328125,-120.5029296875,-120.9912109375,-121.3330078125,-122.0166015625,-122.6025390625,-122.7978515625,-123.7255859375,-123.9697265625,-124.8486328125,-125.2880859375,-123.4814453125,-119.8193359375,-117.7685546875,-116.5478515625,-116.1572265625,-115.7177734375,-115.0341796875,-116.3037109375,-116.3037109375,-116.8896484375,-116.7431640625,-116.9384765625,-117.2314453125,-117.8173828125,-118.2568359375,-119.4287109375,-119.7216796875,-120.7470703125,-121.0888671875,-121.8701171875,-121.7724609375,-122.9443359375,-123.3349609375,-123.8232421875,-124.5068359375,-124.3115234375,-122.0166015625,-119.2333984375,-116.8408203125,-115.8154296875,-115.5712890625,-115.3271484375,-115.3759765625,-115.6689453125,-115.7177734375,-115.5224609375,-115.9130859375,-115.8642578125,-116.5966796875,-117.2802734375,-117.7685546875,-118.5498046875,-119.1845703125,-120.3076171875,-120.7958984375,-120.7470703125,-121.7236328125,-121.7724609375,-122.6025390625,-123.0419921875,-123.9697265625,-124.4580078125,-124.4580078125,-121.8212890625,-118.7939453125,-116.3525390625,-115.4736328125,-114.7412109375,-114.2529296875,-114.2529296875,-114.9365234375,-114.6923828125,-115.4248046875,-114.9365234375,-115.2783203125,-116.0107421875,-116.5478515625,-117.5244140625,-118.6474609375,-118.8427734375,-119.5751953125,-120.3564453125,-120.7470703125,-121.2353515625,-121.6748046875,-121.9677734375,-123.1396484375,-123.6279296875,-123.8232421875,-124.7998046875,-124.5556640625,-123.3349609375,-119.4775390625,-117.6708984375,-116.1083984375,-115.3759765625,-115.0341796875,-114.7900390625,-115.2783203125,-115.8642578125,-115.8154296875,-115.4736328125,-116.1572265625,-116.3037109375,-116.8896484375,-117.8173828125,-118.1591796875,-119.4775390625,-119.6240234375,-120.3564453125,-121.1865234375,-121.0400390625,-121.7724609375,-122.7978515625,-122.9931640625,-123.7744140625,-124.1650390625,-124.3115234375,-123.8232421875,-120.9423828125,-118.2568359375,-116.3525390625,-115.5224609375,-115.4736328125,-114.9853515625,-115.3271484375,-115.6689453125,-115.9619140625,-115.7177734375,-115.4736328125,-115.8642578125,-116.6455078125,-117.7197265625,-117.9150390625,-118.0615234375,-118.8916015625,-119.8193359375,-119.7705078125,-120.1123046875,-120.9912109375,-121.5771484375,-121.9189453125,-122.2119140625,-123.0908203125,-120.7470703125,-117.2314453125,-115.5712890625,-113.8623046875,-113.6669921875,-113.0322265625,-112.6416015625,-113.4228515625,-113.7158203125,-112.9345703125,-113.2763671875,-113.6669921875,-114.4482421875,-114.7900390625,-114.9853515625,-115.9619140625,-116.1083984375,-117.3779296875,-117.2802734375,-118.1591796875,-118.5009765625,-118.9892578125,-119.3310546875,-120.0634765625,-120.3076171875,-121.3818359375,-118.6962890625,-114.5947265625,-112.5439453125,-110.7373046875,-110.2490234375,-110.2490234375,-109.9072265625,-109.9072265625,-110.5419921875,-110.1513671875,-110.2978515625,-110.7861328125,-110.9814453125,-111.8115234375,-112.4951171875,-113.0810546875,-113.8134765625,-114.2529296875,-115.1806640625,-115.7177734375,-116.4501953125,-116.5966796875,-116.7919921875,-117.5244140625,-118.1591796875,-119.0380859375,-118.8427734375,-119.8193359375,-118.8427734375,-114.4482421875,-110.5908203125,-109.7119140625,-107.8564453125,-106.5869140625,-106.3916015625,-106.1474609375,-107.1240234375,-107.3681640625,-107.5634765625,-107.7099609375,-108.3935546875,-108.0517578125,-109.5654296875,-110.7373046875,-111.3232421875,-112.5927734375,-112.8857421875,-113.4716796875,-114.3017578125,-114.4970703125,-115.3759765625,-115.7177734375,-116.7431640625,-117.1826171875,-118.1103515625,-118.5009765625,-118.4033203125,-117.3779296875,-113.5693359375,-109.9072265625,-108.4912109375,-107.7587890625,-107.1240234375,-106.9287109375,-107.4658203125,-108.1005859375,-107.5634765625,-107.7099609375,-108.3447265625,-108.2470703125,-109.5166015625,-110.1025390625,-111.3232421875,-111.8115234375,-112.9833984375,-112.8369140625,-114.6923828125,-114.3994140625,-114.9365234375,-115.5224609375,-116.0595703125,-116.7431640625,-117.0849609375,-118.1591796875,-118.0126953125,-116.7919921875,-112.5439453125,-110.0048828125,-107.9541015625,-107.4658203125,-107.3681640625,-106.4404296875,-107.9052734375,-108.3935546875,-107.9052734375,-108.4912109375,-108.1982421875,-108.6865234375,-109.4189453125,-110.6396484375,-111.3232421875,-112.4462890625,-113.3251953125,-113.3740234375,-114.1064453125,-114.5458984375,-115.3271484375,-116.0595703125,-116.8896484375,-117.1826171875,-117.2314453125,-116.9873046875,-113.0810546875,-109.9072265625,-108.1005859375,-106.8798828125,-106.2451171875,-106.0009765625,-106.5380859375,-107.8076171875,-107.6123046875,-107.8564453125,-107.9541015625,-108.3447265625,-109.4189453125,-109.8583984375,-111.4208984375,-111.8115234375,-112.8369140625,-112.9833984375,-114.0576171875,-114.9365234375,-114.8876953125,-115.4248046875,-116.1083984375,-116.8896484375,-117.4755859375,-118.2568359375,-118.4033203125,-115.2783203125,-111.2744140625,-109.5166015625,-107.3681640625,-107.1240234375,-106.4892578125,-106.1962890625,-107.5146484375,-107.9052734375,-107.8076171875,-108.7353515625,-108.4912109375,-108.4912109375,-110.0048828125,-111.1279296875,-111.9091796875,-113.0810546875,-113.0810546875,-114.1552734375,-114.4970703125,-115.0830078125,-116.1572265625,-116.3525390625,-116.8408203125,-117.4267578125,-117.9150390625,-119.0869140625,-119.3310546875,-118.8916015625,-116.3525390625,-112.2021484375,-109.8095703125,-109.4677734375,-108.0517578125,-107.2705078125,-106.7333984375,-107.9541015625,-108.5888671875,-108.3447265625,-108.7353515625,-109.2724609375,-108.9306640625,-110.8837890625,-110.9326171875,-111.8603515625,-112.6904296875,-113.2275390625,-114.4970703125,-114.2041015625,-115.8642578125,-116.2060546875,-116.7919921875,-117.3779296875,-117.4267578125,-118.5498046875,-119.3798828125,-120.4541015625,-120.7958984375,-120.8447265625,-117.2314453125,-113.8134765625,-111.2744140625,-110.2001953125,-110.1025390625,-109.3701171875,-110.0048828125,-110.5419921875,-110.8837890625,-110.9814453125,-110.4443359375,-111.2744140625,-111.6162109375,-112.7880859375,-113.1787109375,-113.5693359375,-114.9365234375,-115.3759765625,-116.0107421875,-116.4013671875,-116.6455078125,-118.2080078125,-118.1591796875,-118.7451171875,-119.2333984375,-120.4541015625,-120.3076171875,-119.4287109375,-116.4990234375,-113.3251953125,-111.1767578125,-110.7861328125,-110.2001953125,-110.3955078125,-110.4931640625,-111.5185546875,-111.3720703125,-111.6162109375,-111.5185546875,-112.2509765625,-112.5439453125,-113.0810546875,-114.5458984375,-114.3017578125,-114.7900390625,-115.9619140625,-116.2548828125,-116.7919921875,-117.8173828125,-118.6474609375,-119.3310546875,-119.6728515625,-120.3076171875,-120.1123046875,-116.7919921875,-112.3486328125,-110.6884765625,-109.3701171875,-109.3212890625,-109.5166015625,-109.7607421875,-109.6142578125,-110.1513671875,-109.7607421875,-110.0537109375,-110.4443359375,-111.1279296875,-111.4697265625,-112.7880859375,-113.9599609375,-114.0576171875,-115.1318359375,-116.0107421875,-115.6201171875,-116.2548828125,-117.3291015625,-116.7919921875,-118.4521484375,-119.4287109375,-119.5263671875,-119.0380859375,-114.8876953125,-110.9326171875,-109.5654296875,-109.1259765625,-107.8564453125,-107.5634765625,-108.1005859375,-109.2236328125,-108.8330078125,-108.9306640625,-109.4189453125,-109.4677734375,-110.2978515625,-110.9814453125,-111.8115234375,-112.7392578125,-113.6181640625,-113.9599609375,-114.5458984375,-115.4736328125,-116.0107421875,-115.9130859375,-117.3291015625,-117.6708984375,-118.2080078125,-119.0869140625,-119.9169921875,-118.8916015625,-115.2783203125,-111.6162109375,-109.0283203125,-108.4912109375,-108.0517578125,-107.6611328125,-107.5634765625,-108.6865234375,-108.3447265625,-109.0771484375,-108.6865234375,-109.3212890625,-110.2490234375,-110.6396484375,-111.8603515625,-112.5439453125,-113.1787109375,-114.5947265625,-115.1318359375,-115.2783203125,-116.0595703125,-116.2548828125,-117.2802734375,-118.1103515625,-118.8427734375,-119.0380859375,-120.2587890625,-120.9423828125,-119.5751953125,-115.1318359375,-112.3974609375,-110.9326171875,-109.9560546875,-110.0048828125,-110.0537109375,-110.7861328125,-111.1767578125,-111.5673828125,-111.3232421875,-111.8603515625,-112.0556640625,-112.2509765625,-113.0322265625,-114.2529296875,-114.1064453125,-115.9130859375,-115.5712890625,-116.3525390625,-117.2802734375,-117.0361328125,-118.0615234375,-118.5986328125,-119.4775390625,-120.3076171875,-120.7958984375,-119.4775390625,-115.7666015625,-112.2509765625,-111.4208984375,-110.7861328125,-110.2978515625,-110.7861328125,-110.8837890625,-111.5673828125,-111.1279296875,-111.5185546875,-111.6650390625,-111.9091796875,-111.8115234375,-113.4228515625,-114.1064453125,-115.0830078125,-115.5712890625,-116.3037109375,-116.6943359375,-116.9384765625,-117.5732421875,-118.5498046875,-119.1357421875,-120.0146484375,-119.1845703125,-117.3779296875,-113.4716796875,-111.2255859375,-110.3955078125,-110.8349609375,-109.5654296875,-109.9072265625,-110.7373046875,-111.2744140625,-111.4208984375,-111.1279296875,-111.6162109375,-111.6650390625,-112.7392578125,-113.3740234375,-114.0576171875,-114.7412109375,-115.8642578125,-116.2060546875,-116.9873046875,-117.1826171875,-117.8662109375,-118.6474609375,-118.9404296875,-119.3798828125,-120.0634765625,-118.7451171875,-114.8388671875,-112.1533203125,-110.9326171875,-109.9072265625,-109.5654296875,-109.3212890625,-110.3466796875,-110.2490234375,-110.7373046875,-110.1513671875,-110.8349609375,-111.0791015625,-111.7626953125,-112.0556640625,-113.5693359375,-114.1064453125,-115.0830078125,-115.1806640625,-116.2060546875,-116.6455078125,-117.1337890625,-118.0615234375,-117.9638671875,-119.1357421875,-120.8447265625,-120.8447265625,-121.0888671875,-118.5009765625,-114.5947265625,-112.3974609375,-110.6396484375,-109.9072265625,-109.5654296875,-109.7607421875,-110.3466796875,-110.5908203125,-110.6884765625,-110.8349609375,-110.7861328125,-111.1279296875,-112.3974609375,-112.4462890625,-113.6669921875,-114.4482421875,-114.8388671875,-115.8154296875,-116.2548828125,-116.9384765625,-117.6220703125,-118.5498046875,-118.7451171875,-119.4775390625,-120.0634765625,-120.6982421875,-120.8935546875,-117.7685546875,-115.0341796875,-112.3486328125,-111.5673828125,-111.6650390625,-111.0302734375,-111.9091796875,-111.9580078125,-111.6650390625,-112.2021484375,-112.2509765625,-112.2509765625,-112.6904296875,-113.0322265625,-114.0576171875,-114.7412109375,-115.4736328125,-116.2060546875,-116.8408203125,-117.6220703125,-117.3779296875,-118.0615234375,-118.7939453125,-119.4287109375,-119.3310546875,-119.5751953125,-116.9384765625,-112.7392578125,-111.6650390625,-110.3466796875,-110.1513671875,-109.7119140625,-109.8583984375,-110.2490234375,-110.2978515625,-110.2001953125,-110.2490234375,-110.9326171875,-111.4208984375,-111.8115234375,-112.4951171875,-113.3740234375,-114.2529296875,-115.1318359375,-115.9130859375,-116.4013671875,-116.7431640625,-117.4755859375,-117.7685546875,-118.5009765625,-118.9404296875,-117.3779296875,-114.0087890625,-110.6884765625,-108.4912109375,-108.1005859375,-107.2705078125,-106.7333984375,-107.4169921875,-108.2470703125,-108.3935546875,-107.6123046875,-107.9541015625,-108.7353515625,-108.5400390625,-110.3466796875,-111.0791015625,-111.3232421875,-112.6416015625,-112.6416015625,-113.4228515625,-114.0087890625,-114.2529296875,-114.7412109375,-115.6689453125,-116.1572265625,-116.2548828125,-117.3291015625,-116.3525390625,-111.4208984375,-108.1005859375,-106.3427734375,-105.7080078125,-104.9755859375,-104.2919921875,-104.9267578125,-105.9033203125,-105.8544921875,-105.6591796875,-106.0498046875,-106.4404296875,-107.1240234375,-107.6611328125,-108.4423828125,-109.2724609375,-110.0048828125,-111.2744140625,-111.9091796875,-112.1533203125,-112.7880859375,-113.2763671875,-114.2529296875,-114.7412109375,-114.8388671875,-116.4013671875,-116.5478515625,-113.6669921875,-108.9794921875,-106.7822265625,-105.3173828125,-105.7568359375,-105.2197265625,-104.2919921875,-105.6591796875,-105.6103515625,-105.4638671875,-105.7568359375,-106.0986328125,-106.8798828125,-107.9052734375,-108.2958984375,-109.5654296875,-109.9560546875,-110.5908203125,-111.3232421875,-111.9091796875,-112.4951171875,-112.3486328125,-112.5927734375,-113.7646484375,-114.5458984375,-115.0341796875,-113.2763671875,-109.0771484375,-106.2939453125,-105.0732421875,-103.7060546875,-104.1943359375,-104.0478515625,-104.7314453125,-104.7802734375,-104.8779296875,-104.8779296875,-104.8779296875,-106.2939453125,-106.0498046875,-106.9775390625,-108.0517578125,-108.2958984375,-109.4677734375,-109.8583984375,-110.4931640625,-111.1767578125,-111.5673828125,-112.5927734375,-112.8857421875,-113.4228515625,-112.0556640625,-108.1005859375,-104.8779296875,-103.0224609375,-102.3876953125,-101.9970703125,-101.3134765625,-101.8505859375,-102.8271484375,-102.6806640625,-102.9248046875,-102.3388671875,-103.3154296875,-103.8525390625,-104.8779296875,-105.8056640625,-107.1728515625,-107.9052734375,-108.2470703125,-108.1982421875,-109.3212890625,-109.8095703125,-110.2490234375,-111.4697265625,-111.7138671875,-111.8603515625,-110.9814453125,-106.9775390625,-103.2666015625,-101.2158203125,-99.8486328125,-98.7744140625,-98.3837890625,-99.4580078125,-99.5556640625,-100.3857421875,-100.5322265625,-100.6787109375,-100.8251953125,-101.6064453125,-102.5830078125,-103.9990234375,-104.7314453125,-105.2685546875,-106.4404296875,-106.9775390625,-107.5634765625,-108.1982421875,-108.3935546875,-109.4677734375,-110.1025390625,-110.2978515625,-111.3720703125,-111.6162109375,-110.4443359375,-105.2197265625,-101.3623046875,-99.9951171875,-98.6279296875,-97.8955078125,-97.7490234375,-98.4814453125,-99.0185546875,-99.1650390625,-99.5556640625,-100.1904296875,-100.0439453125,-101.0693359375,-102.3388671875,-103.5107421875,-104.3896484375,-104.9755859375,-105.9521484375,-107.1728515625,-107.8076171875,-108.1005859375,-109.5654296875,-109.6142578125,-109.8583984375,-111.1767578125,-111.8603515625,-112.4462890625,-112.4951171875,-109.9560546875,-104.6337890625,-102.1435546875,-100.8251953125,-99.4580078125,-99.3603515625,-99.5556640625,-100.5322265625,-101.0205078125,-101.1181640625,-101.1181640625,-101.1669921875,-101.6064453125,-102.8271484375,-103.7548828125,-104.6337890625,-105.5126953125,-106.4404296875,-107.0263671875,-107.4658203125,-107.8564453125,-108.7841796875,-109.1259765625,-110.1513671875,-110.3955078125,-110.9326171875,-110.6396484375,-106.0498046875,-102.8759765625,-100.6787109375,-99.6044921875,-99.0185546875,-98.1396484375,-98.7744140625,-99.8486328125,-99.9462890625,-100.2392578125,-100.0927734375,-101.1181640625,-101.2646484375,-101.5576171875,-103.3154296875,-104.1943359375,-104.8291015625,-105.9033203125,-106.7822265625,-107.3193359375,-108.0029296875,-108.1005859375,-109.0771484375,-109.7119140625,-110.8837890625,-110.9326171875,-108.6376953125,-103.5107421875,-101.0693359375,-98.8720703125,-98.4814453125,-97.9443359375,-98.1884765625,-98.1396484375,-99.8486328125,-99.7998046875,-99.5556640625,-100.2392578125,-101.0205078125,-101.9482421875,-102.9736328125,-103.7548828125,-105.0732421875,-105.7568359375,-106.3916015625,-107.3681640625,-107.5634765625,-108.3447265625,-108.6865234375,-109.3701171875,-110.9814453125,-110.9814453125,-111.8115234375,-111.2255859375,-107.1728515625,-103.0224609375,-100.0439453125,-99.1650390625,-98.2373046875,-98.0908203125,-98.5791015625,-99.4580078125,-99.5556640625,-100.3369140625,-100.1904296875,-100.6787109375,-101.1181640625,-102.4365234375,-103.3642578125,-104.0478515625,-105.3173828125,-105.6591796875,-107.0751953125,-107.2216796875,-107.9052734375,-108.9794921875,-109.7119140625,-110.0048828125,-110.9814453125,-111.3720703125,-112.2021484375,-112.5439453125,-110.6884765625,-106.3916015625,-103.1201171875,-101.7041015625,-100.7763671875,-100.1416015625,-99.9462890625,-101.1669921875,-101.8017578125,-101.8017578125,-101.2158203125,-101.6064453125,-102.0458984375,-103.1201171875,-103.9990234375,-104.9267578125,-105.4638671875,-106.9287109375,-107.5146484375,-107.7099609375,-108.5400390625,-108.1494140625,-109.3701171875,-110.3466796875,-111.3720703125,-111.5673828125,-112.3486328125,-110.9814453125,-107.1240234375,-103.3154296875,-101.8017578125,-100.6787109375,-100.4345703125,-100.3369140625,-101.3623046875,-101.6064453125,-101.2646484375,-101.7041015625,-102.1923828125,-102.4853515625,-102.6318359375,-103.8037109375,-104.6337890625,-105.1220703125,-106.2939453125,-107.1240234375,-107.6611328125,-108.1005859375,-108.2958984375,-108.6376953125,-109.9560546875,-110.7373046875,-110.6396484375,-109.6142578125,-104.6826171875,-101.3134765625,-100.5322265625,-99.4580078125,-98.0908203125,-98.7744140625,-99.3115234375,-99.7021484375,-99.2138671875,-99.2138671875,-100.1904296875,-100.5810546875,-101.4111328125,-101.8994140625,-102.7783203125,-104.4873046875,-104.8779296875,-105.0244140625,-106.5380859375,-106.3916015625,-107.2216796875,-108.2958984375,-108.8330078125,-109.2236328125,-109.9560546875,-109.7607421875,-106.4404296875,-101.8017578125,-98.8232421875,-97.2119140625,-96.3818359375,-95.9423828125,-95.6982421875,-96.6748046875,-97.1630859375,-97.0166015625,-97.3583984375,-97.2607421875,-97.9931640625,-99.0185546875,-100.0439453125,-101.0205078125,-101.9482421875,-102.7294921875,-103.8525390625,-104.0966796875,-104.8779296875,-105.7080078125,-106.0498046875,-106.4404296875,-107.2705078125,-108.3447265625,-108.8330078125,-109.0771484375,-105.7568359375,-101.0693359375,-97.6025390625,-96.0888671875,-95.5517578125,-94.6240234375,-94.5263671875,-96.0888671875,-96.2353515625,-96.2353515625,-96.3818359375,-96.8701171875,-98.1884765625,-98.7744140625,-99.7021484375,-101.0693359375,-101.8994140625,-103.0712890625,-103.8037109375,-104.0478515625,-105.1220703125,-106.0498046875,-106.4404296875,-107.6123046875,-108.0029296875,-108.8330078125,-109.7119140625,-110.2490234375,-110.2978515625,-105.9521484375,-101.7041015625,-99.9951171875,-99.0185546875,-99.2626953125,-98.8232421875,-99.0185546875,-100.1416015625,-100.0927734375,-100.6298828125,-100.9716796875,-101.5087890625,-102.0947265625,-103.1689453125,-104.0478515625,-104.7802734375,-105.8544921875,-106.1962890625,-107.0263671875,-107.9541015625,-107.6611328125,-108.7353515625,-109.4189453125,-109.9072265625,-110.7861328125,-111.0791015625,-111.1279296875,-107.4658203125,-104.1943359375,-102.2900390625,-101.6552734375,-101.1669921875,-100.7763671875,-101.8505859375,-101.9970703125,-101.8017578125,-102.4365234375,-102.4365234375,-102.9248046875,-103.8037109375,-104.9267578125,-105.0732421875,-106.0498046875,-106.5380859375,-107.1240234375,-108.1982421875,-108.6865234375,-109.5166015625,-109.8583984375,-110.2978515625,-111.3232421875,-111.7138671875,-110.4443359375,-107.5634765625,-104.2919921875,-102.8271484375,-101.8017578125,-100.8740234375,-100.5810546875,-101.0693359375,-101.6064453125,-101.8017578125,-101.9970703125,-101.7529296875,-101.9482421875,-102.9736328125,-103.9013671875,-104.0966796875,-104.8779296875,-105.7080078125,-106.2939453125,-107.3193359375,-108.4423828125,-108.2958984375,-109.4189453125,-109.4677734375,-110.1513671875,-110.7861328125,-110.7861328125,-108.6865234375,-105.3662109375,-101.7529296875,-100.9716796875,-99.6533203125,-99.6533203125,-99.1650390625,-99.8486328125,-100.3857421875,-100.4833984375,-100.3857421875,-100.2880859375,-100.7763671875,-101.6064453125,-102.0947265625,-103.3642578125,-103.7548828125,-104.9267578125,-104.9755859375,-106.0498046875,-106.5380859375,-106.9287109375,-107.1240234375,-107.8076171875,-108.4423828125,-109.3212890625,-110.1513671875,-110.0537109375,-107.4658203125,-103.0712890625,-100.7275390625,-99.2626953125,-98.0908203125,-97.4072265625,-97.3583984375,-97.9443359375,-98.3837890625,-98.7255859375,-98.4814453125,-99.2138671875,-99.2626953125,-100.2392578125,-101.7041015625,-101.9970703125,-103.2666015625,-103.4130859375,-104.6337890625,-105.4150390625,-106.1962890625,-105.6591796875,-107.2705078125,-107.7099609375,-108.5888671875,-109.2236328125,-110.0048828125,-109.3212890625,-106.1962890625,-101.9482421875,-99.7509765625,-98.7255859375,-98.9208984375,-98.2861328125,-98.9208984375,-99.6533203125,-99.3115234375,-98.6279296875,-99.6044921875,-100.1416015625,-100.6298828125,-101.7529296875,-102.1923828125,-102.9736328125,-104.0478515625,-104.1455078125,-105.5126953125,-105.5126953125,-105.8544921875,-106.3427734375,-106.9775390625,-108.2470703125,-108.2470703125,-107.1728515625,-103.3642578125,-99.4580078125,-97.9443359375,-97.4072265625,-95.8447265625,-96.0888671875,-97.5537109375,-97.7001953125,-97.1630859375,-97.2119140625,-97.5048828125,-97.3095703125,-98.7255859375,-99.1162109375,-99.8486328125,-100.8251953125,-101.3623046875,-102.2412109375,-103.2666015625,-103.2666015625,-104.0478515625,-104.8779296875,-105.5615234375,-106.0498046875,-107.1240234375,-104.7314453125,-99.4091796875,-96.7236328125,-95.5029296875,-94.1357421875,-92.8662109375,-92.4267578125,-92.9150390625,-94.6728515625,-93.9892578125,-94.0869140625,-95.0634765625,-95.0146484375,-96.0400390625,-97.0654296875,-97.8955078125,-99.0185546875,-99.7509765625,-100.4345703125,-101.8017578125,-102.2900390625,-102.5830078125,-103.2666015625,-103.5595703125,-104.2431640625,-105.0244140625,-105.0244140625,-101.6064453125,-97.0166015625,-94.0380859375,-92.2802734375,-91.3525390625,-90.6689453125,-89.3505859375,-91.6943359375,-92.2802734375,-92.0361328125,-92.7197265625,-93.8916015625,-93.7451171875,-94.8681640625,-95.6494140625,-96.7236328125,-98.2373046875,-98.9208984375,-99.7509765625,-101.1181640625,-101.1181640625,-102.0458984375,-102.3388671875,-103.5107421875,-104.3408203125,-104.9267578125,-106.3427734375,-105.7568359375,-103.2666015625,-98.2373046875,-95.4052734375,-94.1845703125,-92.4755859375,-92.4755859375,-92.4755859375,-93.8916015625,-93.9404296875,-94.8193359375,-94.2822265625,-94.1357421875,-95.5029296875,-96.4306640625,-97.4072265625,-98.4814453125,-99.2626953125,-100.1904296875,-100.6298828125,-101.7529296875,-101.5087890625,-102.5830078125,-102.6806640625,-103.4130859375,-104.6337890625,-105.1220703125,-104.3896484375,-101.0693359375,-96.5771484375,-94.5751953125,-93.8916015625,-93.3056640625,-93.2568359375,-94.2822265625,-95.0146484375,-96.0888671875,-95.2587890625,-95.5029296875,-96.5283203125,-96.8212890625,-97.7978515625,-98.9208984375,-99.4580078125,-100.0927734375,-100.8740234375,-101.5576171875,-102.1435546875,-102.4365234375,-103.4619140625,-104.0478515625,-104.1943359375,-105.0732421875,-102.4365234375,-97.7490234375,-94.9658203125,-93.0126953125,-92.3779296875,-91.4990234375,-91.6943359375,-92.8173828125,-93.3544921875,-93.2568359375,-93.5986328125,-93.9892578125,-94.4775390625,-95.0146484375,-96.2353515625,-97.6025390625,-98.3349609375,-99.6044921875,-99.9462890625,-100.8251953125,-101.2158203125,-102.0947265625,-102.9736328125,-103.1201171875,-103.9013671875,-104.6337890625,-102.0458984375,-96.9677734375,-94.0380859375,-91.3525390625,-91.3525390625,-90.0830078125,-90.5224609375,-91.9384765625,-91.9873046875,-92.3291015625,-92.7197265625,-93.0615234375,-93.3056640625,-94.6240234375,-95.8935546875,-96.2353515625,-97.8955078125,-98.8720703125,-99.4091796875,-100.3857421875,-100.8251953125,-101.0693359375,-102.2900390625,-102.8759765625,-103.1201171875,-104.1943359375,-104.6826171875,-104.6826171875,-101.5087890625,-96.8212890625,-94.3310546875,-92.0849609375,-91.2060546875,-91.5478515625,-91.7919921875,-92.7197265625,-93.0615234375,-93.3056640625,-93.8916015625,-93.8916015625,-94.7705078125,-96.1865234375,-97.3583984375,-98.2373046875,-98.0908203125,-99.4580078125,-100.4833984375,-100.9716796875,-101.2158203125,-102.4853515625,-102.8759765625,-103.7548828125,-104.8291015625,-105.2197265625,-106.5869140625,-106.1962890625,-102.4853515625,-98.3837890625,-95.8447265625,-95.0146484375,-94.9169921875,-94.8193359375,-95.0146484375,-96.3330078125,-95.5517578125,-96.0400390625,-96.3330078125,-96.5771484375,-97.4560546875,-98.3837890625,-99.0673828125,-100.1904296875,-100.8740234375,-101.6064453125,-102.1923828125,-103.3154296875,-103.6572265625,-103.8037109375,-104.5361328125,-105.4150390625,-106.4892578125,-106.1474609375,-104.3408203125,-100.3857421875,-96.5771484375,-95.4052734375,-94.6728515625,-94.0869140625,-94.6240234375,-94.7705078125,-95.9912109375,-95.9423828125,-95.2587890625,-95.9912109375,-96.4794921875,-97.1142578125,-98.6279296875,-99.2626953125,-99.8974609375,-100.7763671875,-101.2646484375,-102.2412109375,-102.3876953125,-103.1201171875,-104.4384765625,-104.3408203125,-105.0732421875,-106.4892578125,-106.2939453125,-103.0224609375,-98.2373046875,-95.4052734375,-93.7939453125,-93.2568359375,-93.2568359375,-93.2080078125,-94.2333984375,-94.3798828125,-94.3310546875,-94.7705078125,-94.1845703125,-95.4052734375,-95.8935546875,-97.7978515625,-98.3837890625,-98.7255859375,-100.0927734375,-100.3857421875,-101.8505859375,-101.2646484375,-102.0458984375,-102.6806640625,-103.4130859375,-104.3896484375,-105.2197265625,-105.5126953125,-102.9248046875,-97.7978515625,-94.6240234375,-93.2080078125,-92.4267578125,-91.8408203125,-92.1337890625,-92.7685546875,-94.0380859375,-93.5986328125,-93.6474609375,-94.7216796875,-94.9658203125,-95.5029296875,-96.7236328125,-97.3583984375,-98.0908203125,-99.8974609375,-99.7998046875,-100.8740234375,-101.4111328125,-101.7529296875,-102.6806640625,-103.1689453125,-103.9990234375,-104.5361328125,-105.2685546875,-105.7568359375,-101.4111328125,-97.0166015625,-94.4775390625,-93.5986328125,-93.0126953125,-93.0126953125,-93.1103515625,-93.8427734375,-94.2822265625,-94.8681640625,-94.5751953125,-95.4541015625,-95.2099609375,-96.7724609375,-97.6513671875,-98.1396484375,-99.1162109375,-100.1416015625,-100.4833984375,-101.3134765625,-101.5087890625,-102.6318359375,-102.8271484375,-103.0712890625,-104.4873046875,-105.0244140625,-103.0712890625,-98.5302734375,-95.6005859375,-93.8427734375,-93.5498046875,-93.2080078125,-93.6962890625,-94.4775390625,-95.0634765625,-95.1123046875,-94.5263671875,-95.7958984375,-95.4541015625,-97.1142578125,-97.4072265625,-98.6767578125,-99.3603515625,-99.7509765625,-100.5322265625,-101.2158203125,-102.2900390625,-102.3876953125,-103.1201171875,-104.1455078125,-104.2919921875,-103.8037109375,-100.6787109375,-95.7958984375,-94.1845703125,-93.2568359375,-92.8173828125,-92.7685546875,-92.9638671875,-93.8427734375,-94.4287109375,-94.1845703125,-94.4287109375,-95.1611328125,-95.6982421875,-96.8701171875,-97.1142578125,-98.6279296875,-99.1650390625,-99.9951171875,-100.5322265625,-101.1669921875,-100.7763671875,-102.5341796875,-102.8271484375,-103.0712890625,-104.2919921875,-104.2431640625,-103.9501953125,-98.9697265625,-95.6494140625,-94.1845703125,-92.2802734375,-91.8896484375,-90.8154296875,-92.5244140625,-92.4267578125,-92.9638671875,-92.6220703125,-93.4521484375,-93.5986328125,-94.1845703125,-95.1611328125,-96.3818359375,-96.5771484375,-97.8955078125,-98.4326171875,-99.4580078125,-100.3369140625,-100.9228515625,-101.4111328125,-102.0947265625,-102.8271484375,-103.3642578125,-103.8037109375,-104.9267578125,-105.5615234375,-104.6826171875,-100.7763671875,-96.2353515625,-94.2333984375,-92.6220703125,-92.0849609375,-92.0361328125,-92.1337890625,-93.3056640625,-93.0126953125,-93.2568359375,-93.7451171875,-94.6240234375,-94.9658203125,-95.7958984375,-97.2607421875,-98.1396484375,-98.6279296875,-99.5068359375,-99.5068359375,-100.2392578125,-101.5576171875,-101.7529296875,-102.0947265625,-102.7783203125,-103.4619140625,-104.0966796875,-104.7802734375,-105.8544921875,-105.6103515625,-101.9970703125,-98.2861328125,-96.0888671875,-95.6005859375,-94.5263671875,-94.0869140625,-94.4775390625,-95.2099609375,-95.0634765625,-94.6728515625,-95.6494140625,-95.3076171875,-96.6259765625,-97.3583984375,-97.6513671875,-99.2138671875,-99.2626953125,-99.8974609375,-100.9716796875,-101.4111328125,-101.3623046875,-102.2412109375,-102.5341796875,-103.2666015625,-104.9755859375,-104.0966796875,-103.5107421875,-99.2138671875,-96.0400390625,-93.9404296875,-92.6220703125,-93.2568359375,-92.7197265625,-93.1103515625,-93.9404296875,-94.4775390625,-94.0869140625,-94.3798828125,-94.2822265625,-95.1611328125,-96.0400390625,-97.2607421875,-98.6279296875,-98.8232421875,-100.2880859375,-100.1904296875,-100.9716796875,-101.0693359375,-101.3623046875,-102.1923828125,-102.9248046875,-103.1689453125,-104.1455078125,-102.8759765625,-97.7001953125,-94.1357421875,-92.7197265625,-91.7431640625,-91.5966796875,-91.4501953125,-91.8896484375,-92.5732421875,-92.3291015625,-92.3779296875,-93.0126953125,-93.1591796875,-93.9892578125,-95.5517578125,-95.8447265625,-96.7236328125,-97.0654296875,-98.4326171875,-98.9208984375,-99.7021484375,-100.6787109375,-100.9228515625,-101.5087890625,-102.0947265625,-102.8271484375,-103.9501953125,-104.1943359375,-102.4853515625,-98.2861328125,-94.5751953125,-92.1337890625,-91.3525390625,-90.5224609375,-90.6201171875,-91.4501953125,-92.4755859375,-92.5244140625,-92.1826171875,-92.4755859375,-93.0615234375,-93.6962890625,-94.5263671875,-95.7958984375,-96.5771484375,-97.5048828125,-97.9443359375,-99.1650390625,-99.4580078125,-100.0927734375,-100.7763671875,-101.5576171875,-101.9482421875,-102.9248046875,-103.6083984375,-104.3896484375,-102.0947265625,-97.5537109375,-94.9658203125,-93.4521484375,-92.9150390625,-92.9150390625,-92.9638671875,-94.0380859375,-94.0869140625,-93.6474609375,-94.3798828125,-94.3310546875,-94.5751953125,-95.6494140625,-96.3818359375,-97.0654296875,-97.7490234375,-98.2861328125,-99.1162109375,-99.7998046875,-100.2880859375,-100.6787109375,-101.4599609375,-101.9970703125,-102.7783203125,-102.3876953125,-99.8486328125,-94.8681640625,-92.7197265625,-91.8896484375,-91.1083984375,-90.7177734375,-91.6455078125,-92.3779296875,-92.4267578125,-92.0361328125,-93.0615234375,-92.9638671875,-93.2568359375,-94.2333984375,-95.6982421875,-96.2353515625,-96.8212890625,-97.4072265625,-98.3837890625,-98.5791015625,-98.8720703125,-99.7998046875,-100.0927734375,-101.4111328125,-101.3134765625,-99.0185546875,-94.9169921875,-92.1826171875,-90.1806640625,-89.6923828125,-89.1064453125,-89.0576171875,-89.5458984375,-90.2783203125,-90.4248046875,-91.1083984375,-90.9130859375,-91.1083984375,-92.5732421875,-93.4033203125,-94.4287109375,-95.0634765625,-96.1865234375,-96.0400390625,-96.8701171875,-97.3583984375,-97.7978515625,-98.8232421875,-98.8232421875,-99.7998046875,-100.9228515625,-100.9228515625,-98.1884765625,-93.2568359375,-90.0830078125,-89.5947265625,-88.0810546875,-87.7880859375,-88.4716796875,-89.2041015625,-89.8876953125,-89.7900390625,-89.6435546875,-90.9619140625,-90.9130859375,-91.5478515625,-93.1591796875,-93.8427734375,-94.9658203125,-95.2587890625,-95.8447265625,-96.9189453125,-97.4072265625,-98.1884765625,-98.8720703125,-99.4580078125,-99.5556640625,-100.8740234375,-100.8251953125,-102.3388671875,-100.1416015625,-95.3564453125,-92.8662109375,-91.2548828125,-91.0595703125,-90.3271484375,-89.9853515625,-92.0849609375,-91.8408203125,-91.0595703125,-92.4755859375,-91.8896484375,-92.6708984375,-93.5009765625,-94.0380859375,-95.0634765625,-95.3564453125,-96.2353515625,-96.9677734375,-97.2607421875,-98.2373046875,-98.5791015625,-98.8232421875,-99.7021484375,-100.0927734375,-100.8740234375,-99.7998046875,-95.8935546875,-92.1826171875,-90.7666015625,-89.4482421875,-89.6923828125,-89.4970703125,-90.3271484375,-90.8154296875,-90.8154296875,-90.7666015625,-91.4990234375,-91.3037109375,-92.0849609375,-93.0615234375,-94.2822265625,-95.4541015625,-95.8935546875,-96.0888671875,-97.0166015625,-97.6513671875,-97.2607421875,-98.5302734375,-99.2626953125,-99.6533203125,-99.9951171875,-96.9189453125,-92.7197265625,-89.6923828125,-88.4228515625,-87.7392578125,-87.1044921875,-87.6904296875,-88.6181640625,-89.1552734375,-88.8623046875,-89.1064453125,-89.3017578125,-89.9365234375,-90.4736328125,-91.5966796875,-93.0615234375,-93.4521484375,-94.1357421875,-94.8681640625,-95.6982421875,-95.6494140625,-96.3818359375,-97.5048828125,-97.9931640625,-98.3349609375,-98.4326171875,-98.1396484375,-93.0126953125,-89.8388671875,-86.8603515625,-86.0302734375,-85.7373046875,-85.0048828125,-85.6884765625,-87.0068359375,-87.0556640625,-86.7626953125,-87.1044921875,-87.4462890625,-88.0810546875,-89.2529296875,-90.2294921875,-91.3037109375,-92.0361328125,-92.6220703125,-94.0380859375,-94.1845703125,-94.6240234375,-95.6005859375,-95.6005859375,-97.1142578125,-97.9443359375,-98.4326171875,-98.8232421875,-96.9189453125,-92.0361328125,-87.6904296875,-86.6650390625,-85.8349609375,-85.4931640625,-85.2978515625,-86.4208984375,-87.1044921875,-86.5673828125,-86.9580078125,-87.2509765625,-88.0322265625,-89.0087890625,-89.3017578125,-90.5712890625,-91.6943359375,-91.8896484375,-92.9150390625,-92.9638671875,-94.0869140625,-94.2822265625,-94.7216796875,-95.5517578125,-96.7236328125,-97.2607421875,-97.1142578125,-94.7216796875,-90.4736328125,-87.6416015625,-86.0791015625,-85.6884765625,-85.5908203125,-85.9814453125,-86.8603515625,-87.5439453125,-87.7392578125,-87.9833984375,-88.1298828125,-88.3740234375,-89.8388671875,-90.2783203125,-91.4013671875,-92.4267578125,-93.3056640625,-93.4033203125,-94.1845703125,-94.5751953125,-95.3564453125,-95.8447265625,-96.5771484375,-97.6513671875,-97.1142578125,-95.9423828125,-90.6201171875,-87.3486328125,-87.2021484375,-86.3720703125,-86.1279296875,-86.0302734375,-87.0068359375,-87.6416015625,-87.4462890625,-87.4462890625,-88.2763671875,-88.8623046875,-90.2783203125,-91.0107421875,-91.4501953125,-92.6220703125,-93.1591796875,-93.0126953125,-94.9169921875,-94.5751953125,-95.2099609375,-96.2841796875,-97.1630859375,-97.8466796875,-98.3349609375,-99.0673828125,-96.6259765625,-91.8408203125,-88.6181640625,-86.8115234375,-86.8115234375,-85.7861328125,-86.1279296875,-87.2509765625,-87.6904296875,-87.9833984375,-87.8369140625,-88.1787109375,-89.2041015625,-89.5458984375,-90.9619140625,-91.9873046875,-92.5732421875,-93.2080078125,-94.0380859375,-95.1611328125,-95.2099609375,-96.0888671875,-96.5283203125,-97.0654296875,-97.9931640625,-99.1162109375,-99.4580078125,-100.1416015625,-98.2861328125,-94.1845703125,-90.6201171875,-89.3994140625,-88.6181640625,-88.4716796875,-87.9345703125,-88.7646484375,-88.9111328125,-89.8388671875,-90.0830078125,-90.3271484375,-90.7177734375,-91.1572265625,-91.9873046875,-93.2080078125,-93.8427734375,-94.7705078125,-95.5029296875,-95.7958984375,-96.8212890625,-96.8212890625,-97.6513671875,-97.6513671875,-98.9208984375,-99.9462890625,-99.4580078125,-97.1630859375,-93.4521484375,-91.0595703125,-90.2783203125,-89.6923828125,-89.2529296875,-89.5947265625,-90.8642578125,-90.7177734375,-90.4736328125,-91.3037109375,-90.6201171875,-91.2060546875,-91.9384765625,-93.2568359375,-93.5986328125,-94.4775390625,-95.1123046875,-94.8681640625,-96.4306640625,-96.3330078125,-97.0654296875,-97.7001953125,-98.4326171875,-98.4814453125,-98.1884765625,-94.3310546875,-90.3271484375,-89.0087890625,-87.9345703125,-86.9580078125,-87.3974609375,-87.4462890625,-88.4228515625,-88.4716796875,-88.2763671875,-88.5693359375,-88.8134765625,-89.1552734375,-90.8154296875,-91.0107421875,-92.0849609375,-92.6220703125,-93.1591796875,-94.3798828125,-94.3798828125,-94.6728515625,-95.4052734375,-96.0400390625,-96.4306640625,-96.7236328125,-95.9423828125,-91.8408203125,-87.7392578125,-85.6884765625,-85.4931640625,-84.1259765625,-84.5654296875,-84.6630859375,-85.7373046875,-85.7861328125,-85.8349609375,-85.9326171875,-86.5673828125,-86.8115234375,-88.0322265625,-88.8134765625,-89.9365234375,-90.7177734375,-91.5478515625,-91.7431640625,-92.5244140625,-93.1591796875,-93.7451171875,-94.5263671875,-95.1611328125,-95.8447265625,-96.1865234375,-94.2333984375,-89.4970703125,-85.7373046875,-84.7607421875,-83.5888671875,-83.8330078125,-82.8076171875,-84.2724609375,-85.0537109375,-84.9560546875,-85.2490234375,-85.4443359375,-86.2744140625,-87.2509765625,-88.0322265625,-89.0576171875,-90.0341796875,-90.7666015625,-91.2548828125,-92.1337890625,-92.5732421875,-93.2080078125,-93.7939453125,-94.0380859375,-94.8681640625,-95.7958984375,-96.3330078125,-94.3310546875,-89.3994140625,-86.9091796875,-85.1513671875,-85.1025390625,-85.0537109375,-85.0048828125,-86.4697265625,-86.2255859375,-86.1279296875,-86.0791015625,-86.1767578125,-87.0556640625,-87.4951171875,-88.5205078125,-89.6923828125,-90.3271484375,-91.5966796875,-91.1572265625,-91.1083984375,-92.1337890625,-92.6708984375,-93.5009765625,-94.8681640625,-94.4287109375,-93.0126953125,-88.7158203125,-85.7373046875,-84.2724609375,-83.1494140625,-83.0029296875,-82.7587890625,-83.9306640625,-84.4677734375,-84.5166015625,-84.4677734375,-84.3212890625,-85.1025390625,-86.3232421875,-87.2509765625,-87.7392578125,-88.4228515625,-89.3505859375,-89.9853515625,-90.5712890625,-91.0107421875,-91.8408203125,-91.9873046875,-92.4755859375,-92.8173828125,-90.2783203125,-84.9072265625,-82.6123046875,-81.1962890625,-80.4150390625,-79.7314453125,-79.8291015625,-81.2451171875,-81.8310546875,-81.6357421875,-81.7333984375,-81.8310546875,-83.3935546875,-83.6376953125,-85.2490234375,-86.0302734375,-87.3486328125,-87.5927734375,-88.2275390625,-89.2041015625,-89.2041015625,-90.4248046875,-90.6689453125,-91.3037109375,-91.8408203125,-91.4501953125,-88.2275390625,-83.5888671875,-81.0498046875,-79.6826171875,-78.8525390625,-78.1689453125,-78.1689453125,-79.5849609375,-80.4150390625,-80.4150390625,-80.8056640625,-81.2451171875,-82.4169921875,-83.1982421875,-83.9794921875,-85.6396484375,-86.3232421875,-86.8603515625,-87.8369140625,-88.4716796875,-89.2529296875,-89.9853515625,-90.6689453125,-91.3037109375,-92.2802734375,-92.6220703125,-93.5986328125,-92.9150390625,-88.8134765625,-84.5654296875,-82.1728515625,-80.7568359375,-80.1708984375,-80.3173828125,-80.3662109375,-82.6123046875,-82.2705078125,-82.6611328125,-82.3193359375,-82.8564453125,-84.0283203125,-84.5166015625,-86.0791015625,-86.9091796875,-87.4462890625,-88.3740234375,-88.4716796875,-89.4482421875,-90.2294921875,-90.4736328125,-90.6689453125,-91.7919921875,-92.4755859375,-92.2314453125,-90.1806640625,-85.5908203125,-83.3935546875,-81.6357421875,-80.7080078125,-81.1474609375,-80.9033203125,-81.6845703125,-82.4169921875,-81.3916015625,-82.8564453125,-82.6611328125,-83.3447265625,-85.0048828125,-85.1025390625,-85.8349609375,-87.0068359375,-87.2021484375,-88.1298828125,-88.7158203125,-89.1552734375,-89.8388671875,-91.2060546875,-90.9130859375,-91.6455078125,-90.5712890625,-86.1767578125,-83.2958984375,-80.6103515625,-79.7802734375,-79.8291015625,-79.6337890625,-79.5849609375,-81.0986328125,-81.0986328125,-81.1474609375,-81.3427734375,-82.1728515625,-82.8564453125,-83.9794921875,-85.5419921875,-85.5908203125,-86.8603515625,-87.6904296875,-88.0810546875,-88.6669921875,-89.6923828125,-89.4482421875,-90.3271484375,-90.6689453125,-91.6455078125,-91.3525390625,-86.8603515625,-83.2470703125,-80.3662109375,-79.9267578125,-78.9501953125,-79.0478515625,-79.3408203125,-80.3173828125,-80.7568359375,-81.0009765625,-81.7333984375,-81.9775390625,-82.7099609375,-84.6142578125,-85.3955078125,-86.3232421875,-87.1044921875,-87.5439453125,-88.4228515625,-88.4716796875,-89.6435546875,-90.3759765625,-90.8642578125,-91.9384765625,-92.1826171875,-93.5498046875,-93.2080078125,-90.0341796875,-84.4677734375,-82.2705078125,-80.9521484375,-80.6591796875,-80.5615234375,-80.8056640625,-81.6357421875,-82.3681640625,-81.7333984375,-83.0029296875,-82.7587890625,-84.3212890625,-84.6630859375,-86.0791015625,-86.2255859375,-87.5927734375,-88.2763671875,-88.9111328125,-89.7900390625,-89.7412109375,-90.8154296875,-91.9384765625,-91.9384765625,-92.4755859375,-93.5986328125,-93.4521484375,-89.6923828125,-86.0791015625,-84.1748046875,-82.9541015625,-82.5634765625,-82.7099609375,-82.9052734375,-83.9306640625,-83.6376953125,-83.9794921875,-84.1748046875,-84.1748046875,-85.0048828125,-86.5673828125,-87.0556640625,-87.9833984375,-88.5205078125,-88.1298828125,-89.7412109375,-89.8388671875,-90.8642578125,-91.2060546875,-92.3291015625,-93.4521484375,-92.7197265625,-91.5478515625,-87.4462890625,-84.6142578125,-82.8076171875,-81.9775390625,-81.5869140625,-82.1240234375,-82.8076171875,-83.2470703125,-83.2958984375,-83.5888671875,-84.0771484375,-84.3212890625,-85.2978515625,-85.7373046875,-86.7138671875,-88.0322265625,-88.3251953125,-89.1064453125,-89.1064453125,-89.3017578125,-90.3759765625,-90.7666015625,-92.0361328125,-92.7197265625,-92.6708984375,-91.2060546875,-86.0791015625,-83.6376953125,-82.1240234375,-81.4404296875,-80.7080078125,-80.9033203125,-81.2451171875,-82.1728515625,-82.0751953125,-81.7333984375,-82.2705078125,-82.8076171875,-83.5888671875,-85.1025390625,-85.2490234375,-86.1767578125,-86.5185546875,-87.4951171875,-88.3740234375,-89.0576171875,-89.6923828125,-90.0830078125,-90.4248046875,-91.4990234375,-92.0849609375,-92.6708984375,-91.8408203125,-87.4951171875,-83.7841796875,-81.8310546875,-81.2451171875,-81.0009765625,-80.2197265625,-80.7568359375,-81.2939453125,-81.3916015625,-81.7822265625,-82.3681640625,-82.6611328125,-83.4912109375,-84.1259765625,-85.3466796875,-85.3466796875,-86.9580078125,-87.4462890625,-88.1298828125,-88.9111328125,-89.5458984375,-89.7900390625,-90.9619140625,-91.4501953125,-92.1826171875,-93.8427734375,-93.4521484375,-93.1591796875,-89.5947265625,-85.6396484375,-83.9794921875,-83.1982421875,-82.2705078125,-82.4169921875,-82.4658203125,-83.9794921875,-83.9306640625,-83.4912109375,-83.9306640625,-84.4677734375,-85.3955078125,-85.8837890625,-86.8115234375,-87.4462890625,-87.7880859375,-88.7646484375,-90.0830078125,-90.4248046875,-90.8642578125,-91.5966796875,-91.6455078125,-93.1103515625,-93.5986328125,-94.2333984375,-95.6982421875,-95.4052734375,-93.0126953125,-89.4482421875,-86.7626953125,-85.7373046875,-85.4931640625,-85.2001953125,-85.4931640625,-86.2744140625,-86.2744140625,-86.3232421875,-86.6162109375,-86.3720703125,-87.2998046875,-87.4462890625,-88.4228515625,-89.5458984375,-89.8876953125,-90.6201171875,-91.4501953125,-91.5478515625,-91.9384765625,-92.0361328125,-92.9638671875,-93.3544921875,-94.1357421875,-93.4521484375,-90.1806640625,-86.8115234375,-84.9560546875,-84.1748046875,-83.6376953125,-83.7353515625,-84.0283203125,-84.9560546875,-84.9560546875,-84.4189453125,-85.0537109375,-85.1025390625,-85.6396484375,-86.5673828125,-87.0556640625,-87.5439453125,-88.2763671875,-89.1552734375,-89.5947265625,-90.3271484375,-90.6201171875,-90.8642578125,-92.0361328125,-92.1337890625,-92.3779296875,-91.9384765625,-88.2275390625,-84.9560546875,-82.4169921875,-81.4404296875,-81.0986328125,-80.9521484375,-81.4404296875,-81.3916015625,-81.3916015625,-81.5869140625,-81.7333984375,-81.7822265625,-82.4658203125,-84.1259765625,-84.3701171875,-85.3466796875,-85.7861328125,-85.8837890625,-86.9091796875,-87.1044921875,-87.7392578125,-88.0322265625,-88.8623046875,-89.9365234375,-90.3759765625,-90.6201171875,-90.8154296875,-86.6162109375,-82.0263671875,-80.0732421875,-78.3642578125,-77.5830078125,-76.1669921875,-76.7529296875,-77.7294921875,-78.5595703125,-77.8759765625,-78.7548828125,-79.3408203125,-79.5361328125,-80.4638671875,-81.4404296875,-82.1240234375,-82.6611328125,-83.5400390625,-84.3701171875,-84.8095703125,-85.6884765625,-85.6884765625,-86.1279296875,-87.1044921875,-87.3974609375,-87.7880859375,-88.3251953125,-89.6923828125,-89.9365234375,-88.5693359375,-84.3212890625,-79.8291015625,-76.9970703125,-76.4111328125,-74.9462890625,-74.8486328125,-75.0927734375,-76.0205078125,-76.3134765625,-76.6064453125,-77.2412109375,-77.7783203125,-78.9501953125,-79.7802734375,-80.1708984375,-81.6845703125,-81.9287109375,-83.1982421875,-83.8818359375,-84.4677734375,-85.0048828125,-85.4931640625,-86.1279296875,-87.2998046875,-87.8857421875,-88.0322265625,-88.9111328125,-89.9853515625,-90.8154296875,-90.5712890625,-88.4228515625,-83.7841796875,-80.5615234375,-79.0478515625,-78.6083984375,-77.6318359375,-77.5830078125,-78.5595703125,-78.6572265625,-79.3408203125,-79.3408203125,-79.9267578125,-80.5126953125,-81.0986328125,-82.3193359375,-82.5634765625,-84.2236328125,-84.9560546875,-85.2490234375,-86.1279296875,-86.6162109375,-87.0556640625,-87.0068359375,-87.6904296875,-88.5205078125,-89.3505859375,-90.3759765625,-90.6201171875,-90.5224609375,-86.7626953125,-83.2958984375,-80.9033203125,-79.8291015625,-79.3896484375,-78.9013671875,-79.3896484375,-80.5126953125,-79.9267578125,-79.9755859375,-80.7080078125,-81.2939453125,-82.0263671875,-82.2216796875,-83.1982421875,-84.0771484375,-84.8095703125,-85.3955078125,-85.8349609375,-86.3232421875,-87.2998046875,-87.8369140625,-87.8857421875,-88.3740234375,-89.4482421875,-90.1806640625,-90.2783203125,-89.9853515625,-85.5419921875,-82.4169921875,-80.0732421875,-79.1455078125,-77.9248046875,-77.9248046875,-78.3642578125,-78.9013671875,-78.9990234375,-78.9990234375,-79.5361328125,-79.6826171875,-81.3427734375,-81.3916015625,-82.0263671875,-82.6123046875,-83.2958984375,-84.3212890625,-84.5654296875,-85.5419921875,-86.2255859375,-85.7861328125,-86.9580078125,-86.8115234375,-88.1298828125
