PPG_subj_11,69,M,Y,Diabetic (Type 2),136,33.9634,Forehead,0.185546875,0.185546875,0.185546875,0.185546875,0.185546875,0.185546875,92.0263671875,35.9619140625,35.3271484375,34.5458984375,33.0322265625,31.9580078125,29.7607421875,28.1982421875,27.0263671875,25.3662109375,24.4873046875,22.9248046875,21.5576171875,20.4345703125,19.7021484375,18.5302734375,17.6513671875,16.2841796875,14.5751953125,13.5009765625,11.6455078125,10.8642578125,12.1337890625,17.2119140625,21.7529296875,25.2197265625,28.1494140625,30.6884765625,33.3740234375,34.8388671875,35.2783203125,34.3017578125,34.3505859375,35.0830078125,34.7900390625,34.5458984375,34.0576171875,32.8369140625,31.1279296875,29.6142578125,28.9794921875,27.1240234375,25.4638671875,23.9013671875,22.5341796875,21.1669921875,20.1904296875,19.4580078125,17.7978515625,16.9677734375,16.3330078125,14.8193359375,13.6474609375,13.0126953125,12.3291015625,14.4775390625,19.6044921875,23.5107421875,26.5380859375,29.9072265625,32.3974609375,35.3271484375,36.4013671875,36.2060546875,34.8388671875,35.2294921875,34.8876953125,34.2529296875,34.5947265625,33.2275390625,32.1533203125,31.1279296875,28.5400390625,26.5380859375,25.6103515625,24.9267578125,23.1689453125,21.5087890625,20.3369140625,18.9697265625,17.7978515625,16.1865234375,15.7470703125,13.4033203125,13.4521484375,11.6455078125,10.4736328125,10.7177734375,13.9892578125,19.1650390625,22.0458984375,25.5126953125,29.1748046875,30.8349609375,32.9833984375,33.4716796875,32.8857421875,32.1533203125,32.0556640625,32.5927734375,32.8857421875,31.9580078125,30.9326171875,29.5654296875,28.2958984375,26.9775390625,24.4384765625,24.4384765625,22.2412109375,21.3134765625,19.9462890625,18.4326171875,16.6748046875,15.3076171875,14.2333984375,13.3544921875,12.3291015625,11.2060546875,9.5458984375,8.6181640625,9.5947265625,14.4775390625,18.9697265625,22.6806640625,25.6591796875,28.7353515625,31.3720703125,33.4228515625,33.4716796875,33.2275390625,32.9833984375,33.6181640625,33.9599609375,33.7646484375,32.9833984375,32.2998046875,31.3232421875,29.4189453125,28.1982421875,27.4169921875,25.9521484375,24.3408203125,23.3154296875,22.6318359375,21.1669921875,19.5556640625,18.6279296875,17.9443359375,16.7724609375,16.0400390625,14.3798828125,13.6474609375,13.0615234375,17.2607421875,21.7041015625,25.6591796875,27.8076171875,30.6884765625,33.0810546875,35.4736328125,36.4013671875,36.6943359375,36.4990234375,36.2060546875,36.5966796875,36.3037109375,35.6201171875,35.4736328125,34.6923828125,33.6181640625,32.1533203125,31.6650390625,29.7607421875,28.8330078125,27.2705078125,25.3662109375,24.0966796875,23.2666015625,21.9482421875,20.5322265625,19.5556640625,18.4326171875,16.5771484375,15.1611328125,15.4052734375,18.0908203125,22.7294921875,27.0263671875,30.2490234375,33.1298828125,35.5224609375,37.4267578125,38.0126953125,37.0849609375,36.5966796875,36.7919921875,37.4267578125,37.2314453125,36.7431640625,36.4501953125,35.1318359375,33.4228515625,31.5185546875,30.1513671875,28.4423828125,27.9541015625,26.2451171875,24.6337890625,22.9736328125,22.0458984375,21.2158203125,19.6533203125,18.7255859375,17.8466796875,16.2841796875,15.3076171875,14.2822265625,16.3330078125,21.5576171875,26.4404296875,29.1259765625,32.8369140625,35.3759765625,37.8173828125,38.2080078125,38.1591796875,37.3291015625,37.9150390625,38.3056640625,39.3310546875,38.2568359375,36.9873046875,36.2548828125,34.7412109375,33.3251953125,32.5927734375,30.5419921875,29.3212890625,28.3447265625,27.5634765625,25.9521484375,24.6826171875,23.3154296875,22.3876953125,21.6064453125,20.5322265625,19.5068359375,17.9443359375,17.7001953125,19.9951171875,24.8779296875,28.7353515625,32.6904296875,35.7177734375,37.7197265625,40.2099609375,41.9677734375,41.9677734375,40.8447265625,40.7958984375,40.8447265625,41.2353515625,40.6005859375,39.5751953125,38.4033203125,36.9384765625,35.5224609375,34.4970703125,32.9833984375,31.8603515625,30.2490234375,28.2470703125,27.4169921875,26.0986328125,24.3896484375,23.5107421875,22.5341796875,21.3134765625,20.0927734375,19.2138671875,17.9443359375,19.7021484375,25.0244140625,29.0771484375,32.1044921875,35.2783203125,37.8662109375,40.3076171875,41.7724609375,41.8212890625,40.2099609375,41.2353515625,41.0400390625,40.8447265625,40.6982421875,39.6728515625,38.3056640625,37.9150390625,35.8154296875,33.9599609375,32.7392578125,31.5185546875,30.3955078125,28.7841796875,27.9052734375,26.6357421875,24.9267578125,23.5595703125,22.4853515625,20.7763671875,20.2392578125,18.2861328125,18.2861328125,20.6298828125,25.9033203125,29.5654296875,32.7880859375,35.8642578125,38.2080078125,40.5029296875,40.9912109375,41.0400390625,40.5517578125,40.6982421875,41.4306640625,40.7958984375,39.4287109375,38.9892578125,38.4521484375,36.3037109375,34.8388671875,33.8134765625,31.7138671875,30.9814453125,29.3701171875,29.4677734375,27.5634765625,26.9287109375,25.8544921875,24.0966796875,23.1201171875,21.6552734375,20.6787109375,19.7021484375,21.5087890625,26.0986328125,30.1025390625,33.6181640625,36.9873046875,38.6962890625,41.1376953125,42.5048828125,42.3583984375,41.2353515625,41.2353515625,41.3818359375,40.7470703125,40.3564453125,39.5751953125,38.4521484375,36.5966796875,35.0830078125,33.0322265625,32.1533203125,30.9814453125,29.2724609375,27.5634765625,27.1728515625,25.0244140625,24.1943359375,22.5830078125,21.7041015625,20.7275390625,18.9697265625,18.0419921875,17.5537109375,20.8251953125,25.5615234375,29.5166015625,33.7646484375,35.9619140625,38.3544921875,41.1376953125,41.3330078125,41.5283203125,41.2841796875,40.6494140625,41.0888671875,40.9423828125,40.1611328125,39.0869140625,37.6708984375,36.4013671875,35.2294921875,33.1787109375,31.8603515625,30.7373046875,28.9794921875,27.8076171875,26.9775390625,25.4638671875,23.7548828125,22.5830078125,21.2646484375,20.1416015625,18.7255859375,17.7490234375,18.4814453125,22.4853515625,27.5146484375,30.8837890625,34.0087890625,37.6220703125,38.9892578125,40.7958984375,41.5283203125,40.2099609375,39.8193359375,39.8681640625,39.6240234375,39.0869140625,38.1591796875,37.2314453125,35.6689453125,33.6181640625,32.1533203125,30.8349609375,29.2724609375,28.1005859375,27.0263671875,25.7080078125,24.6826171875,24.4873046875,22.7783203125,21.3623046875,20.6787109375,19.2138671875,17.6513671875,17.5048828125,21.2646484375,25.6591796875,29.1748046875,32.2509765625,34.8876953125,36.7919921875,38.5009765625,39.6240234375,39.9169921875,38.7451171875,38.4521484375,38.2080078125,37.8173828125,37.3291015625,35.3759765625,33.9111328125,33.0810546875,30.7861328125,28.8818359375,27.4658203125,25.7080078125,24.6337890625,23.5107421875,22.4853515625,21.4111328125,19.9462890625,18.8232421875,17.6025390625,16.4306640625,15.6982421875,14.6728515625,16.1865234375,21.7529296875,25.1708984375,28.5400390625,31.7626953125,34.7900390625,36.8896484375,37.5244140625,37.4755859375,36.4013671875,36.2548828125,36.4013671875,36.1083984375,35.8642578125,34.4482421875,33.3740234375,31.9580078125,29.8583984375,28.5888671875,27.3681640625,26.0498046875,24.2919921875,23.5107421875,21.8505859375,20.7763671875,19.8974609375,18.1884765625,17.2607421875,15.4052734375,14.7705078125,13.5986328125,13.5009765625,16.7724609375,21.2646484375,25.3662109375,28.6865234375,31.6162109375,34.6435546875,36.3037109375,37.2802734375,36.4013671875,36.0107421875,35.9619140625,35.9619140625,35.8642578125,34.8388671875,33.9111328125,33.0322265625,31.3232421875,29.9072265625,28.2958984375,26.5380859375,25.5126953125,24.1943359375,23.4619140625,22.0458984375,21.4599609375,19.6044921875,18.9697265625,17.6025390625,16.2353515625,15.6982421875,14.9658203125,17.8955078125,22.4365234375,26.0009765625,28.8818359375,32.2021484375,34.2041015625,36.0107421875,36.8896484375,36.6455078125,35.5712890625,35.6689453125,35.8154296875,35.5224609375,34.6923828125,33.4716796875,32.2998046875,30.0048828125,28.9306640625,26.7822265625,25.8544921875,24.2919921875,23.3642578125,21.8994140625,20.5322265625,19.5556640625,18.1396484375,16.7236328125,15.7470703125,14.1357421875,12.5732421875,11.9384765625,14.2822265625,19.5556640625,22.9248046875,26.5380859375,28.5888671875,32.3974609375,34.3017578125,34.3017578125,34.7412109375,32.9833984375,33.6669921875,33.5205078125,33.6181640625,32.7880859375,31.9580078125,30.2490234375,28.9794921875,26.9287109375,25.2685546875,24.1455078125,23.0224609375,20.8251953125,20.1416015625,19.0185546875,18.5791015625,16.6748046875,15.3564453125,14.9169921875,12.9638671875,12.1826171875,10.5712890625,11.1572265625,16.3330078125,21.1669921875,24.6826171875,27.4658203125,30.5908203125,33.0810546875,34.5947265625,34.6923828125,34.2041015625,33.5693359375,34.1064453125,34.3017578125,33.9599609375,32.6904296875,31.4208984375,29.2236328125,27.6123046875,26.4892578125,24.8779296875,23.4619140625,22.3876953125,20.8251953125,19.7021484375,18.4326171875,17.5048828125,16.7236328125,15.8935546875,13.5986328125,13.1591796875,11.5966796875,11.3525390625,14.6240234375,19.1650390625,23.7548828125,26.0009765625,29.6142578125,32.2998046875,34.1552734375,35.1806640625,33.8134765625,33.9599609375,33.4716796875,33.8134765625,33.0322265625,31.7138671875,30.9326171875,29.4189453125,28.1494140625,25.9033203125,24.3896484375,23.2666015625,21.4599609375,20.1904296875,19.3115234375,18.1884765625,17.0654296875,15.4052734375,14.4287109375,12.7197265625,11.7919921875,10.9619140625,10.4248046875,13.4521484375,17.9931640625,21.8994140625,24.5849609375,28.0517578125,30.2001953125,32.1044921875,32.8857421875,31.7138671875,31.3232421875,31.7138671875,31.4697265625,30.7373046875,29.7119140625,28.5400390625,27.1240234375,25.6103515625,23.2666015625,22.3876953125,20.6298828125,19.4580078125,17.5048828125,16.9189453125,15.1123046875,14.4775390625,13.4521484375,12.2802734375,10.5224609375,9.4482421875,8.1787109375,7.3486328125,9.6435546875,14.3310546875,18.1884765625,21.6552734375,24.5849609375,27.4658203125,29.4189453125,30.5419921875,30.1513671875,29.6142578125,29.7119140625,29.3212890625,29.1748046875,28.4423828125,27.2216796875,25.7080078125,24.1943359375,22.6318359375,21.0205078125,19.6044921875,17.6513671875,16.8212890625,15.6005859375,14.8681640625,13.5009765625,12.3779296875,11.3037109375,10.0341796875,9.0576171875,7.6904296875,7.0556640625,8.9599609375,13.5498046875,17.2119140625,20.4833984375,22.9248046875,25.5615234375,27.7099609375,28.7841796875,28.5400390625,27.9541015625,27.7587890625,27.4658203125,27.7099609375,26.5869140625,25.5126953125,24.4873046875,22.7294921875,21.0205078125,19.7021484375,18.2861328125,17.0166015625,16.2353515625,14.7216796875,13.5498046875,11.7431640625,10.0830078125,9.3994140625,8.2763671875,7.2021484375,5.9814453125,5.7373046875,8.8134765625,13.4033203125,16.8212890625,19.7998046875,22.2412109375,24.5361328125,26.8310546875,26.9775390625,26.4404296875,26.3427734375,26.0986328125,25.9521484375,25.4638671875,24.7802734375,23.8037109375,22.6806640625,21.0693359375,18.4326171875,17.5048828125,15.9423828125,14.6240234375,13.4033203125,12.2314453125,11.7431640625,11.0595703125,9.3017578125,8.1787109375,6.2255859375,5.1513671875,4.1259765625,3.7353515625,6.1767578125,11.0595703125,14.6240234375,17.9443359375,21.5576171875,24.2431640625,26.8310546875,27.4658203125,27.5634765625,26.9775390625,27.1728515625,27.4169921875,26.9287109375,26.7822265625,25.8056640625,24.2431640625,22.8271484375,21.3623046875,19.9951171875,17.7978515625,16.5283203125,15.7470703125,13.8427734375,12.2802734375,11.6455078125,10.6689453125,9.5947265625,8.2275390625,6.6650390625,5.9814453125,5.3466796875,7.0068359375,11.7919921875,15.5517578125,19.6533203125,22.3876953125,25.0244140625,27.2705078125,28.1005859375,27.9541015625,27.6611328125,27.3193359375,27.3193359375,26.3916015625,25.2197265625,25.2197265625,23.6572265625,22.3876953125,20.4833984375,19.7021484375,16.9189453125,16.3330078125,14.4287109375,13.5498046875,12.8173828125,11.3037109375,10.6689453125,9.3017578125,8.0322265625,6.7626953125,5.1513671875,5.1025390625,6.8603515625,11.1572265625,15.1611328125,18.5302734375,21.8994140625,23.8525390625,26.2451171875,26.6845703125,26.2939453125,25.5126953125,25.7568359375,25.5615234375,25.0732421875,25.1708984375,23.5107421875,21.9482421875,20.5322265625,18.5791015625,16.9189453125,15.6982421875,14.3310546875,12.4267578125,11.3525390625,11.1572265625,9.3017578125,8.2763671875,6.8115234375,6.4208984375,4.8095703125,3.5888671875,2.2705078125,5.0537109375,9.4482421875,13.1103515625,16.6748046875,19.7998046875,22.8271484375,25.3662109375,26.1962890625,26.0009765625,25.6591796875,24.9267578125,25.1220703125,24.6337890625,23.5107421875,22.3388671875,21.5576171875,19.7509765625,18.3349609375,17.2607421875,15.6005859375,13.7451171875,12.2314453125,10.9130859375,9.7412109375,8.7158203125,7.2998046875,5.6884765625,5.3955078125,3.4912109375,2.5634765625,1.9287109375,4.1259765625,8.9111328125,12.1337890625,16.1376953125,19.0673828125,21.3623046875,24.2919921875,25.6591796875,24.7314453125,24.9267578125,24.3408203125,24.2431640625,24.2919921875,23.7060546875,22.4853515625,21.0205078125,19.0673828125,17.6025390625,16.1865234375,14.7216796875,12.8173828125,11.6943359375,11.2548828125,10.2294921875,8.5205078125,8.1298828125,6.6162109375,5.7373046875,4.0771484375,2.8076171875,2.7587890625,5.1025390625,9.2529296875,13.5009765625,16.0888671875,19.0185546875,21.9970703125,23.1201171875,23.9501953125,24.0478515625,23.3154296875,23.5107421875,23.2666015625,22.3388671875,22.1923828125,21.2158203125,20.0927734375,18.0908203125,16.0888671875,14.2822265625,13.3544921875,11.8408203125,9.9365234375,8.9599609375,7.8369140625,6.6162109375,5.6396484375,5.2490234375,3.7353515625,2.0263671875,1.0498046875,1.3427734375,5.0537109375,9.3994140625,12.4755859375,15.6005859375,19.3603515625,21.8017578125,23.4130859375,24.1455078125,23.6572265625,22.7294921875,23.1201171875,23.2177734375,22.7294921875,22.0458984375,20.3857421875,19.3115234375,17.1142578125,16.3818359375,15.2099609375,12.6220703125,11.3037109375,9.9853515625,8.5693359375,8.3251953125,7.4951171875,5.8349609375,4.0771484375,3.1494140625,1.5869140625,0.2685546875,0.2197265625,4.2236328125,9.0576171875,12.4267578125,16.2353515625,19.1162109375,22.0947265625,23.6083984375,24.7802734375,23.6083984375,23.3642578125,22.8759765625,23.4130859375,22.2412109375,21.6064453125,20.5322265625,19.3115234375,17.7490234375,15.6494140625,15.0146484375,12.7197265625,11.4013671875,9.6923828125,8.7158203125,8.1298828125,5.6884765625,5.2978515625,4.0771484375,3.1982421875,2.2705078125,1.0498046875,0.0244140625,2.1728515625,6.4697265625,11.3525390625,14.1845703125,17.9443359375,20.5322265625,22.3388671875,23.4619140625,23.2177734375,22.4365234375,22.2412109375,22.3388671875,22.2900390625,21.0205078125,20.1904296875,18.7744140625,17.1142578125,15.4541015625,13.6962890625,12.3291015625,11.0107421875,9.7900390625,8.9111328125,7.6416015625,6.2255859375,5.5419921875,3.5400390625,3.6376953125,1.5380859375,0.2197265625,0.3662109375,2.3193359375,7.5927734375,10.6689453125,13.5986328125,17.8466796875,19.8486328125,21.9970703125,22.2412109375,21.8994140625,21.8505859375,21.4111328125,21.4599609375,20.8251953125,19.6533203125,19.0185546875,17.3095703125,16.2353515625,14.4287109375,13.1591796875,11.4501953125,10.5224609375,8.6181640625,7.9345703125,6.9580078125,5.7373046875,4.4189453125,3.1982421875,1.7822265625,0.8544921875,-0.4150390625,-0.4150390625,-0.7080078125,3.7353515625,7.9833984375,11.7431640625,14.6240234375,18.4814453125,21.9482421875,23.5107421875,24.0966796875,23.6083984375,22.9248046875,23.0712890625,22.9736328125,22.6318359375,21.2158203125,20.7763671875,18.8232421875,17.8955078125,16.1376953125,14.1357421875,12.8173828125,11.4990234375,10.5224609375,10.1806640625,8.3251953125,8.0810546875,6.5673828125,5.8349609375,3.7353515625,2.8076171875,2.0263671875,0.6591796875,2.7099609375,6.5673828125,11.5478515625,14.6240234375,17.8466796875,20.6787109375,22.7783203125,24.5849609375,24.4384765625,23.5595703125,23.2666015625,23.3642578125,22.8759765625,21.6064453125,21.1669921875,20.3857421875,18.9697265625,16.8212890625,15.6005859375,14.3310546875,12.9638671875,11.7431640625,10.3271484375,9.4970703125,8.6669921875,7.2021484375,5.5908203125,5.1513671875,3.6865234375,3.2470703125,1.2451171875,1.4404296875,5.0537109375,9.2529296875,13.0126953125,16.8212890625,19.7998046875,21.7529296875,24.0966796875,24.9755859375,24.0966796875,23.1689453125,23.8037109375,23.8037109375,23.2177734375,22.2412109375,20.5810546875,19.8486328125,18.3349609375,16.8212890625,14.7705078125,13.5009765625,11.5966796875,10.8154296875,9.6923828125,7.9833984375,7.2509765625,4.9560546875,4.6630859375,3.3447265625,2.6123046875,0.9521484375,0.2197265625,-0.2685546875,2.8076171875,7.6416015625,11.6455078125,15.2099609375,18.1884765625,21.2646484375,24.2431640625,25.1220703125,24.7802734375,24.5361328125,23.9990234375,23.9013671875,23.6572265625,23.0224609375,21.4599609375,20.8740234375,18.4326171875,17.4560546875,14.7216796875,14.0380859375,12.1826171875,11.0595703125,10.2294921875,8.8134765625,7.8369140625,6.7626953125,5.4931640625,4.5654296875,2.5634765625,1.9287109375,0.1220703125,0.1708984375,3.9794921875,9.2041015625,12.5732421875,16.3818359375,19.4091796875,22.2412109375,24.4384765625,24.8779296875,24.5849609375,23.8525390625,24.1943359375,23.8037109375,23.4619140625,22.6318359375,21.0693359375,19.2138671875,18.0419921875,16.5771484375,15.2587890625,14.1357421875,12.7197265625,10.9619140625,9.6435546875,8.8623046875,7.2021484375,7.0068359375,5.2978515625,4.7607421875,3.2470703125,1.6845703125,1.0986328125,2.9052734375,7.7392578125,11.2548828125,14.9169921875,18.0908203125,20.7275390625,23.1201171875,24.8291015625,24.6337890625,23.7548828125,24.0966796875,24.3896484375,23.5595703125,22.4365234375,21.7529296875,21.1669921875,19.0185546875,16.7236328125,15.1123046875,13.5498046875,12.4267578125,11.2060546875,9.6923828125,9.1552734375,7.9833984375,6.7626953125,5.9326171875,3.8818359375,2.7587890625,1.8798828125,1.0986328125,2.7099609375,7.6416015625,12.1826171875,15.6494140625,19.7021484375,22.0458984375,24.9755859375,26.4892578125,25.9521484375,26.1474609375,25.4638671875,26.1474609375,25.5126953125,24.6826171875,23.9013671875,22.5830078125,20.5810546875,19.2626953125,17.0654296875,15.5517578125,15.3564453125,13.6962890625,12.4267578125,10.8642578125,9.6923828125,8.1298828125,7.3486328125,6.2744140625,5.1025390625,3.7353515625,4.1259765625,4.7119140625,9.4970703125,14.1845703125,17.6513671875,20.7275390625,23.7060546875,26.7333984375,27.7099609375,27.4658203125,26.8310546875,26.0986328125,27.0751953125,25.8056640625,25.0244140625,23.9501953125,22.8759765625,20.7275390625,19.1650390625,17.4560546875,15.6005859375,14.4287109375,13.4033203125,12.2802734375,11.7919921875,10.6201171875,9.0087890625,8.0322265625,6.8115234375,5.2001953125,4.6630859375,4.5654296875,7.8857421875,12.6220703125,16.3818359375,19.5068359375,23.3154296875,25.7080078125,27.2216796875,28.0517578125,26.8310546875,25.9521484375,26.5380859375,26.6357421875,25.9521484375,24.4873046875,23.6572265625,22.5830078125,20.8251953125,18.6767578125,17.1142578125,15.4541015625,15.3076171875,13.5009765625,11.8896484375,11.4013671875,9.4482421875,8.8623046875,7.3974609375,5.7861328125,4.2724609375,3.2958984375,4.1259765625,9.3994140625,14.2333984375,18.5791015625,21.3134765625,24.2431640625,27.5146484375,29.0771484375,28.9306640625,28.8330078125,27.6123046875,27.9052734375,28.3935546875,27.0263671875,26.1962890625,24.3896484375,23.1689453125,21.6064453125,19.7509765625,18.2861328125,17.2119140625,15.7470703125,13.6962890625,13.7939453125,12.5244140625,11.1083984375,9.5458984375,8.8623046875,7.1533203125,5.5908203125,4.6630859375,6.8115234375,11.5478515625,15.7470703125,19.7021484375,22.7294921875,25.9521484375,28.5400390625,30.3466796875,30.3955078125,29.5166015625,29.1748046875,29.1748046875,29.2724609375,28.5400390625,27.3681640625,25.9033203125,24.2431640625,23.0712890625,20.8251953125,18.9697265625,17.8466796875,16.4794921875,15.0634765625,14.1845703125,13.0615234375,12.4755859375,10.0341796875,9.7900390625,7.6416015625,6.9580078125,6.9091796875,8.8623046875,13.8916015625,18.0908203125,21.0205078125,24.8291015625,27.9052734375,29.1748046875,30.6396484375,30.4443359375,28.5400390625,29.2724609375,29.1259765625,27.4169921875,27.0263671875,25.7080078125,24.7314453125,21.9970703125,20.5810546875,18.9697265625,17.7978515625,16.3330078125,15.2587890625,12.8173828125,12.1337890625,11.4501953125,9.6923828125,8.8623046875,7.2021484375,5.9814453125,4.8583984375,4.9560546875,8.4716796875,13.3544921875,17.0654296875,21.1181640625,23.7060546875,27.1240234375,28.8818359375,29.3701171875,28.7353515625,27.7099609375,28.0517578125,27.9541015625,27.9052734375,26.4404296875,25.1708984375,23.4619140625,22.0458984375,20.0927734375,18.5302734375,16.4306640625,15.3564453125,14.1357421875,13.1103515625,11.9873046875,10.8642578125,9.5947265625,8.3740234375,6.9091796875,5.5908203125,4.1748046875,4.9560546875,9.5947265625,14.4287109375,18.0908203125,22.3876953125,26.0009765625,28.4912109375,29.9072265625,31.0302734375,29.8095703125,29.5166015625,29.4189453125,29.4677734375,29.5654296875,28.2470703125,27.5634765625,26.0498046875,23.6083984375,21.7041015625,20.5810546875,19.4091796875,16.9189453125,15.5029296875,15.0634765625,13.5009765625,12.7197265625,11.2548828125,10.2294921875,8.7158203125,7.2509765625,6.1767578125,6.6650390625,10.1318359375,15.2587890625,18.9208984375,22.7294921875,25.3662109375,28.4423828125,31.2255859375,31.5673828125,31.3232421875,31.3720703125,31.7138671875,30.5419921875,30.7373046875,29.5654296875,28.5888671875,26.3916015625,24.8291015625,23.4130859375,21.8017578125,20.7763671875,19.6044921875,17.7490234375,16.4794921875,15.1123046875,14.0380859375,13.0126953125,11.1083984375,10.0341796875,8.7646484375,7.5927734375,8.3740234375,12.5732421875,17.0654296875,21.4111328125,24.1455078125,28.0517578125,30.5908203125,32.0556640625,31.8115234375,31.0302734375,29.7119140625,30.8837890625,30.5419921875,30.0048828125,28.9794921875,27.1240234375,26.4404296875,23.9013671875,22.3876953125,21.3134765625,19.2138671875,17.9931640625,17.1630859375,15.3564453125,14.1845703125,13.2080078125,12.2802734375,10.0830078125,8.8623046875,8.5693359375,7.3486328125,8.8623046875,13.5986328125,18.1396484375,22.0947265625,25.2197265625,29.1259765625,31.0791015625,33.0322265625,32.5439453125,31.8603515625,31.7138671875,31.3720703125,30.9814453125,30.4443359375,29.6142578125,28.0517578125,27.2705078125,25.3173828125,24.2431640625,22.1435546875,20.6298828125,19.1162109375,17.7490234375,17.3095703125,16.1865234375,15.2099609375,14.2822265625,12.1337890625,11.6943359375,10.2294921875,8.9599609375,10.5712890625,15.6982421875,20.7275390625,24.4384765625,27.2216796875,31.0791015625,32.5927734375,34.6923828125,34.5947265625,33.3740234375,33.4716796875,34.0087890625,33.0810546875,33.1298828125,31.8603515625,30.7373046875,29.0283203125,27.1240234375,25.6103515625,23.9501953125,22.8271484375,21.7041015625,20.6298828125,18.8232421875,17.9443359375,17.0166015625,15.5029296875,14.5263671875,13.5009765625,11.9384765625,10.3759765625,11.0107421875,15.6982421875,20.3369140625,24.4873046875,28.4912109375,30.5419921875,33.2275390625,35.0830078125,34.9365234375,34.4482421875,34.2529296875,34.4482421875,33.5205078125,33.0322265625,32.1533203125,30.8837890625,29.3212890625,27.4169921875,26.1962890625,25.3173828125,22.7294921875,21.1669921875,19.8974609375,18.2861328125,17.5048828125,16.3330078125,14.5751953125,13.8427734375,12.4267578125,10.4736328125,10.0341796875,11.0107421875,15.9912109375,20.7763671875,23.8037109375,27.6123046875,30.9326171875,33.0322265625,35.0341796875,35.1806640625,34.1552734375,33.7158203125,34.3994140625,34.3505859375,32.9345703125,32.2998046875,31.3720703125,29.3701171875,27.1728515625,25.7080078125,25.0244140625,23.5107421875,21.9482421875,20.5810546875,18.7255859375,17.7001953125,16.1865234375,15.1611328125,13.5009765625,12.7685546875,11.2548828125,10.6689453125,10.9130859375,14.7216796875,19.6533203125,23.1689453125,27.1728515625,30.7373046875,32.8369140625,35.9619140625,36.2548828125,36.0595703125,35.1318359375,35.6201171875,36.0595703125,35.6201171875,34.4970703125,33.4228515625,32.2509765625,30.7373046875,28.7353515625,26.9287109375,25.4150390625,24.1943359375,23.4130859375,21.6552734375,20.7763671875,19.6044921875,17.9931640625,16.7724609375,15.5517578125,14.5263671875,13.6962890625,14.1845703125,19.0185546875,22.8271484375,26.7822265625,30.3466796875,32.8369140625,35.0341796875,36.7919921875,37.1826171875,36.4990234375,36.4501953125,36.5478515625,36.0595703125,35.5712890625,33.9599609375,33.0810546875,31.3720703125,29.6630859375,28.6865234375,26.1474609375,24.8779296875,23.0712890625,22.0947265625,21.1181640625,19.3603515625,18.4326171875,16.9677734375,15.1611328125,14.7705078125,13.1103515625,11.8408203125,12.9638671875,17.0654296875,21.7041015625,25.9033203125,29.5166015625,32.3974609375,34.6435546875,36.4501953125,36.8408203125,35.3271484375,34.6923828125,35.4248046875,35.1806640625,34.7412109375,34.5458984375,32.7392578125,30.6884765625,29.0283203125,26.8798828125,26.2451171875,25.0244140625,23.2177734375,21.9482421875,20.5322265625,19.9951171875,18.7744140625,16.6259765625,15.5029296875,15.4541015625,13.1591796875,12.1826171875,11.6455078125,16.5283203125,21.0693359375,25.0732421875,28.6376953125,31.9580078125,34.9365234375,37.0361328125,37.3779296875,36.7431640625,36.8408203125,37.4267578125,37.0361328125,36.7919921875,35.2294921875,34.4482421875,32.8369140625,31.7138671875,29.4189453125,28.0517578125,26.1474609375,25.1708984375,23.8525390625,22.4853515625,20.9716796875,20.1416015625,19.3115234375,17.8466796875,16.7724609375,15.0634765625,13.7451171875,13.8427734375,16.4306640625,21.6064453125,25.5615234375,28.9306640625,32.3974609375,34.6923828125,36.1572265625,37.1337890625,37.6708984375,36.8896484375,36.6455078125,37.2314453125,36.3037109375,35.4248046875,33.7646484375,32.4951171875,31.5185546875,29.6142578125,28.3935546875,26.7333984375,25.7568359375,23.5107421875,22.8271484375,21.3134765625,20.3857421875,19.0673828125,17.7978515625,16.8701171875,15.1123046875,14.2333984375,12.8662109375,14.4775390625,19.9462890625,24.1943359375,27.6611328125,30.4443359375,32.7880859375,35.1806640625,36.0107421875,36.1572265625,35.4248046875,35.4736328125,35.2294921875,35.0830078125,34.1064453125,33.2275390625,31.9091796875,30.2978515625,29.4189453125,26.8798828125,26.2939453125,25.0732421875,22.9736328125,21.9482421875,20.7763671875,20.1904296875,17.9931640625,17.4560546875,15.6494140625,14.7216796875,13.0615234375,11.5966796875,12.4755859375,17.1630859375,21.7041015625,25.3662109375,29.1748046875,32.5439453125,34.8388671875,36.7919921875,37.2802734375,36.8408203125,37.0361328125,36.3037109375,36.5966796875,36.4501953125,35.2783203125,34.2041015625,33.1787109375,31.7138671875,30.5908203125,28.5888671875,27.0751953125,26.2451171875,24.5361328125,22.9248046875,21.9970703125,20.8740234375,19.4580078125,18.5302734375,17.7490234375,16.3818359375,15.5029296875,15.5029296875,18.7744140625,24.8291015625,28.8818359375,31.9580078125,35.1318359375,37.4267578125,39.5263671875,40.4052734375,40.2587890625,39.3798828125,39.5751953125,39.5263671875,39.8193359375,38.8916015625,38.5986328125,36.6943359375,35.3759765625,34.2529296875,31.9580078125,30.9814453125,28.9306640625,27.6123046875,26.1474609375,25.4638671875,24.0478515625,23.2666015625,21.8505859375,20.1904296875,18.4326171875,17.5048828125,18.7255859375,22.2900390625,27.3681640625,30.3955078125,33.8134765625,37.2802734375,39.8193359375,41.2841796875,41.3818359375,41.2841796875,41.1376953125,41.1376953125,40.9423828125,40.1611328125,38.5498046875,37.8173828125,36.4990234375,34.5458984375,32.8369140625,31.5673828125,30.3466796875,28.5400390625,27.9541015625,25.4638671875,24.9267578125,23.6572265625,21.5087890625,20.5810546875,19.4580078125,17.6513671875,16.7236328125,19.2626953125,23.4619140625,28.4912109375,32.0556640625,35.8154296875,39.3798828125,41.6259765625,43.4326171875,43.1396484375,42.6513671875,42.4072265625,41.8701171875,41.9677734375,40.7958984375,40.3076171875,38.7939453125,36.7431640625,35.2783203125,33.9111328125,32.0068359375,30.7861328125,29.2236328125,27.6123046875,26.6357421875,25.4150390625,24.3896484375,23.0224609375,21.9482421875,20.5322265625,19.7021484375,18.9208984375,20.2392578125,25.6103515625,30.4443359375,33.8623046875,37.3779296875,39.7216796875,42.4072265625,43.8720703125,43.9697265625,42.8466796875,42.6513671875,42.0654296875,41.7236328125,40.5517578125,39.7705078125,38.1103515625,37.0849609375,35.2783203125,33.3740234375,32.2509765625,31.0302734375,29.7607421875,28.3935546875,27.1240234375,26.3427734375,24.4873046875,23.4130859375,22.5830078125,20.3857421875,19.4091796875,19.6533203125,22.4853515625,27.0263671875,31.1767578125,34.4970703125,37.6708984375,39.9658203125,41.8212890625,42.5048828125,41.6748046875,40.6494140625,40.2099609375,39.9169921875,39.6728515625,38.5498046875,37.6708984375,36.3525390625,33.7158203125,32.9833984375,30.8837890625,29.8095703125,27.7587890625,26.6845703125,26.0009765625,24.5849609375,22.8271484375,21.9970703125,20.2392578125,19.0673828125,17.8955078125,16.6259765625,18.6279296875,23.5595703125,27.9052734375,31.1767578125,34.3994140625,37.2802734375,40.4052734375,41.4306640625,41.2353515625,40.3564453125,40.0634765625,39.7705078125,39.5751953125,38.9892578125,37.8173828125,36.3037109375,35.2294921875,33.5693359375,30.8349609375,29.6630859375,28.1494140625,26.9287109375,25.6591796875,24.7802734375,23.3154296875,22.4853515625,21.0693359375,20.1416015625,18.5791015625,17.7490234375,16.8701171875,19.4580078125,23.3642578125,27.9052734375,32.2509765625,35.3271484375,38.4033203125,41.3818359375,43.2861328125,42.9931640625,42.0166015625,42.1142578125,41.8701171875,41.7236328125,40.6005859375,40.6005859375,38.4521484375,36.9873046875,35.1806640625,34.4482421875,32.3974609375,30.9814453125,29.3212890625,28.5888671875,27.1240234375,26.5380859375,25.7080078125,24.5849609375,22.3388671875,21.8017578125,20.4345703125,21.1181640625,25.4150390625,30.2978515625,34.0576171875,36.7431640625,39.5751953125,42.7001953125,44.7509765625,45.0927734375,44.1650390625,43.4814453125,43.5791015625,42.8955078125,42.2119140625,40.9423828125,39.3798828125,37.7197265625,36.5966796875,34.8876953125,33.9111328125,31.5673828125,30.2978515625,29.0283203125,27.4169921875,26.3916015625,25.1708984375,24.2919921875,23.4619140625,21.8505859375,19.9951171875,20.6298828125,24.2431640625,28.9306640625,32.8369140625,36.6943359375,39.9658203125,43.0908203125,44.9951171875,46.2158203125,45.1416015625,44.6044921875,44.2138671875,43.8232421875,42.9443359375,42.3583984375,41.1865234375,39.4775390625,37.6708984375,36.4990234375,35.3271484375,33.3740234375,32.1533203125,30.6884765625,29.5654296875,28.2958984375,27.4169921875,25.7080078125,24.2919921875,23.3154296875,21.9970703125,20.4833984375,24.4384765625,29.0771484375,33.1298828125,36.9384765625,41.1865234375,44.7509765625,48.0224609375,48.0712890625,48.4130859375,46.7529296875,47.0947265625,47.4365234375,47.0947265625,45.7763671875,44.1650390625,42.7490234375,40.9912109375,40.2099609375,38.3544921875,36.7431640625,35.2294921875,34.1064453125,32.4462890625,31.5185546875,30.8837890625,29.7607421875,28.6865234375,26.3916015625,25.3173828125,24.2919921875,25.2685546875,29.8583984375,34.0087890625,37.9638671875,41.5771484375,45.1416015625,48.5595703125,50.0244140625,50.6591796875,49.7802734375,48.9013671875,48.9501953125,48.5107421875,48.1201171875,47.0458984375,45.4833984375,43.7255859375,42.3095703125,40.5517578125,38.5009765625,37.2802734375,35.5224609375,34.3017578125,33.0810546875,31.8115234375,29.8095703125,29.0771484375,28.1982421875,26.2451171875,25.5126953125,25.5126953125,28.8330078125,33.2763671875,37.6708984375,41.2841796875,44.7509765625,47.6806640625,49.8291015625,50.0244140625,49.4384765625,48.3154296875,47.9736328125,47.4853515625,47.5341796875,45.6298828125,44.7509765625,42.8466796875,41.2353515625,39.5263671875,37.4267578125,36.2548828125,35.1318359375,33.4716796875,32.0556640625,31.5185546875,29.8583984375,28.7353515625,27.3193359375,25.5615234375,23.7060546875,22.2900390625,23.9990234375,28.5400390625,33.3251953125,38.0615234375,41.0888671875,45.2392578125,48.8037109375,49.9755859375,50.4638671875,49.1455078125,48.0712890625,48.4130859375,47.9248046875,48.3154296875,46.0693359375,44.9462890625,43.4326171875,41.5771484375,39.7216796875,38.1591796875,36.8408203125,35.8154296875,34.2529296875,32.9833984375,31.9580078125,30.7373046875,28.7353515625,28.2470703125,26.5380859375,25.5126953125,24.6826171875,26.5380859375,30.9814453125,35.5712890625,39.5751953125,42.6513671875,46.5087890625,49.3896484375,51.0498046875,50.3662109375,49.5361328125,48.7548828125,49.2919921875,49.2431640625,48.1689453125,46.6064453125,45.6298828125,44.8486328125,42.7978515625,40.7470703125,40.2587890625,38.2080078125,36.9384765625,34.9365234375,34.1064453125,33.1787109375,31.8115234375,31.1279296875,29.1748046875,27.6123046875,26.8798828125,26.6845703125,30.2978515625,34.5947265625,38.4521484375,42.4560546875,45.2880859375,49.2431640625,50.2685546875,51.1962890625,50.0244140625,49.4384765625,49.7314453125,48.2666015625,48.3642578125,46.7041015625,45.6298828125,43.7255859375,42.1142578125,40.9912109375,38.7451171875,37.3291015625,35.7177734375,34.3017578125,32.2998046875,31.7138671875,30.4931640625,29.1259765625,27.8076171875,26.8310546875,24.8779296875,23.9013671875,24.1455078125,28.9306640625,32.9345703125,37.9150390625,41.2841796875,45.0439453125,48.6572265625,51.0009765625,51.0498046875,50.5126953125,49.8291015625,49.9267578125,49.6826171875,49.4384765625,48.1689453125,46.8994140625,45.3857421875,43.2373046875,41.8701171875,39.8193359375,38.8427734375,36.9873046875,35.9619140625,34.3017578125,33.0810546875,32.3974609375,31.2744140625,30.4443359375,28.7841796875,27.2705078125,26.4404296875,27.2705078125,31.3720703125,36.5966796875,41.2353515625,44.9951171875,49.0478515625,52.0751953125,53.9794921875,54.4189453125,53.3935546875,53.0517578125,52.5146484375,53.1494140625,52.3681640625,50.2685546875,49.7314453125,48.1689453125,46.0693359375,44.1162109375,42.8955078125,41.6748046875,39.6240234375,38.5498046875,37.6708984375,35.9619140625,35.5712890625,34.5458984375,32.7392578125,31.2255859375,29.6630859375,28.4423828125,29.1259765625,33.6669921875,38.5986328125,42.5537109375,46.1181640625,49.5849609375,52.1728515625,54.3701171875,54.5654296875,53.9794921875,52.6611328125,52.7099609375,52.2705078125,51.2939453125,50.3173828125,48.7548828125,46.1669921875,44.8486328125,43.3349609375,41.2353515625,39.8193359375,38.2568359375,36.3525390625,34.8876953125,33.8623046875,32.4951171875,31.0791015625,29.6630859375,28.0029296875,26.8798828125,25.6103515625,26.0009765625,30.2978515625,35.5712890625,40.1123046875,43.2861328125,46.7529296875,49.8779296875,51.2451171875,51.3427734375,50.6103515625,49.8779296875,49.2431640625,49.2431640625,48.4619140625,47.6318359375,45.9228515625,44.3115234375,42.2119140625,40.2099609375,39.2333984375,37.2314453125,34.9853515625,33.8134765625,32.5439453125,31.6650390625,29.9072265625,28.4912109375,27.9541015625,25.4638671875,24.8291015625,23.9501953125,23.2177734375,26.9775390625,32.3974609375,37.2314453125,41.1865234375,44.3115234375,47.5830078125,50.4150390625,50.2197265625,50.3662109375,49.4873046875,49.2431640625,48.8037109375,48.2177734375,47.4365234375,46.6064453125,44.9951171875,43.3349609375,40.9423828125,39.6728515625,38.1103515625,36.6455078125,35.2294921875,33.5693359375,32.8857421875,31.3232421875,29.5166015625,28.6376953125,27.7099609375,26.3916015625,25.1220703125,23.7548828125,25.0732421875,29.3212890625,34.5458984375,38.4033203125,42.1630859375,45.0439453125,47.9248046875,50.3173828125,50.6103515625,49.1943359375,49.2431640625,48.7060546875,48.0224609375,48.2666015625,47.0458984375,45.8740234375,44.0673828125,42.6025390625,41.3818359375,39.1357421875,38.0615234375,36.2548828125,34.5458984375,33.3740234375,32.1533203125,30.5419921875,29.4677734375,27.6123046875,27.4169921875,24.9267578125,23.9990234375,23.3154296875,26.0986328125,31.1767578125,35.8154296875,39.2822265625,42.6025390625,45.6298828125,48.5107421875,48.9013671875,48.0224609375,47.8271484375,47.8271484375,47.1435546875,46.5576171875,46.0205078125,45.1416015625,43.1884765625,41.3818359375,40.7470703125,38.1591796875,37.1337890625,35.0830078125,34.4482421875,31.9091796875,30.8837890625,29.3212890625,28.1982421875,26.5869140625,25.5126953125,23.9013671875,22.5341796875,21.3623046875,20.9716796875,24.3408203125,29.3212890625,34.2529296875,37.6708984375,41.7236328125,44.8974609375,47.5341796875,48.5595703125,48.1201171875,47.7783203125,47.4365234375,47.5830078125,47.3876953125,46.6064453125,44.6044921875,43.9208984375,42.1142578125,40.4541015625,38.6962890625,37.3291015625,35.2294921875,34.6435546875,32.9833984375,31.5673828125,29.9560546875,28.8818359375,28.1982421875,26.8310546875,25.8056640625,24.1455078125,22.4853515625,22.5830078125,24.9755859375,30.5908203125,35.0830078125,38.8427734375,41.6748046875,44.4091796875,47.4853515625,47.8759765625,47.5830078125,47.0458984375,46.9482421875,46.8994140625,45.8251953125,45.1416015625,43.9208984375,42.5537109375,40.5517578125,38.6962890625,37.1826171875,36.1572265625,34.1064453125,32.9833984375,31.1279296875,29.9072265625,28.8330078125,27.2705078125,26.1474609375,24.9755859375,24.0478515625,21.9482421875,21.2646484375,20.7763671875,24.2431640625,28.4912109375,33.0322265625,36.6455078125,39.4775390625,42.4560546875,44.9951171875,44.7021484375,44.4580078125,43.4814453125,43.0908203125,43.4326171875,42.7001953125,41.6748046875,40.6494140625,39.2822265625,37.4755859375,36.0595703125,34.1064453125,32.7392578125,31.5185546875,29.7119140625,28.6376953125,26.8798828125,26.0009765625,25.3662109375,23.4130859375,22.4853515625,20.4833984375,20.0439453125,18.6279296875,18.4326171875,21.9482421875,26.9775390625,31.1279296875,35.3271484375,38.4521484375,41.1865234375,43.8232421875,44.9462890625,43.8720703125,44.1162109375,43.2373046875,43.5791015625,42.8466796875,42.0654296875,41.1376953125,39.3798828125,37.4755859375,35.9619140625,35.0341796875,32.9833984375,32.5439453125,30.1513671875,29.3701171875,28.6376953125,26.5869140625,25.9521484375,24.5361328125,22.9736328125,22.0458984375,20.6298828125,19.1650390625,18.9697265625,21.4111328125,26.2451171875,31.2255859375,34.9365234375,38.1591796875,41.2841796875,44.1650390625,45.3857421875,44.6044921875,43.8720703125,43.9208984375,44.0673828125,43.1884765625,42.8466796875,41.3818359375,40.3564453125,38.6474609375,37.2802734375,35.7666015625,34.0087890625,32.8369140625,31.6162109375,29.9560546875,28.9306640625,28.7353515625,26.6845703125,25.7568359375,24.2919921875,22.5341796875,20.8251953125,19.7509765625,19.7021484375,21.7529296875,27.5634765625,31.9091796875,35.4248046875,38.5498046875,40.7958984375,43.0908203125,45.8251953125,44.7021484375,44.6044921875,43.9208984375,43.4814453125,43.3349609375,42.3095703125,40.6005859375,39.5751953125,37.8173828125,36.6455078125,35.6689453125,33.8134765625,31.2744140625,31.0302734375,29.4189453125,28.3447265625,26.4892578125,25.2685546875,24.4873046875,22.1435546875,21.8505859375,20.8251953125,18.7744140625,18.1884765625,20.2880859375,25.3173828125,29.7119140625,33.7646484375,37.4267578125,40.4541015625,42.9443359375,44.4580078125,44.6044921875,44.2138671875,43.2861328125,43.3349609375,43.1884765625,42.3583984375,41.7724609375,40.6494140625,39.4287109375,37.7197265625,35.7177734375,34.3017578125,33.2763671875,31.5673828125,30.2490234375,29.3212890625,27.7587890625,26.9775390625,24.9755859375,24.0966796875,22.7783203125,21.8017578125,20.4833984375,19.3115234375,19.6044921875,23.8525390625,28.4912109375,32.1533203125,36.3525390625,39.3798828125,42.8466796875,43.9208984375,44.4091796875,43.8720703125,43.6279296875,43.8720703125,43.7255859375,42.6025390625,41.5283203125,40.7958984375,38.9404296875,37.2802734375,35.7666015625,34.6435546875,33.1298828125,31.9580078125,30.2978515625,29.1259765625,28.3447265625,26.7822265625,26.3427734375,24.8779296875,23.7548828125,22.6806640625,21.1181640625,20.6787109375,21.9482421875,26.6357421875,30.4443359375,34.3994140625,37.9150390625,39.7705078125,42.4072265625,44.1162109375,44.0185546875,42.6025390625,43.2373046875,42.4072265625,42.3095703125,41.6748046875,40.4052734375,38.7451171875,37.3779296875,36.0107421875,34.7900390625,33.0322265625,30.9326171875,29.8583984375,28.2958984375,27.3193359375,26.4892578125,25.1220703125,23.9501953125,22.7294921875,21.9482421875,19.8486328125,18.6767578125,18.2373046875,20.8740234375,25.6591796875,29.9560546875,33.5693359375,36.9384765625,40.3564453125,41.9677734375,43.9208984375,42.7978515625,42.3583984375,42.5537109375,42.0166015625,42.1630859375,41.2841796875,40.1123046875,38.4521484375,37.1826171875,35.6689453125,34.1064453125,33.1298828125,31.4208984375,29.8583984375,28.2470703125,26.6845703125,24.8291015625,23.9990234375,22.4365234375,21.3134765625,18.9208984375,17.2119140625,15.7470703125,15.6982421875,19.2626953125,23.7060546875,26.9287109375,29.8583984375,32.4951171875,34.1552734375,36.6943359375,37.0361328125,36.1083984375,35.9619140625,35.3759765625,36.0107421875,35.8154296875,35.4248046875,34.0087890625,32.8857421875,31.5185546875,30.8837890625,28.7353515625,27.7587890625,26.6357421875,25.3662109375,25.0244140625,24.0478515625,22.9248046875,22.6318359375,20.9228515625,20.6298828125,19.0673828125,17.4560546875,17.7001953125,19.9462890625,25.1220703125,29.2724609375,32.5439453125,36.4990234375,39.0380859375,40.5029296875,42.9443359375,42.0654296875,40.7958984375,40.6494140625,40.7470703125,40.4052734375,39.3798828125,38.5986328125,37.6220703125,35.8154296875,33.9111328125,32.2021484375,30.9326171875,29.5166015625,28.0517578125,27.3193359375,25.7568359375,24.7802734375,23.6572265625,22.2412109375,21.4111328125,19.7998046875,18.5302734375,17.3095703125,18.6767578125,23.3154296875,28.0029296875,31.3232421875,35.7666015625,38.4033203125,41.8212890625,43.0419921875,42.5537109375,41.8212890625,41.2353515625,41.7236328125,41.8701171875,41.0888671875,40.2587890625,39.0380859375,37.2314453125,35.5712890625,34.2041015625,33.4228515625,32.1044921875,31.0302734375,30.6396484375,28.4423828125,27.3681640625,26.4404296875,25.3662109375,24.8779296875,22.3388671875,21.4111328125,20.5322265625,20.3857421875,22.9736328125,28.0029296875,32.8857421875,35.3759765625,39.3310546875,42.2607421875,44.5068359375,45.4833984375,45.5322265625,44.9462890625,44.7509765625,44.5068359375,44.5068359375,43.7255859375,42.1142578125,41.0888671875,39.1845703125,37.3779296875,35.7666015625,34.6435546875,33.8134765625,32.2021484375,30.1025390625,29.4189453125,28.2470703125,27.3681640625,25.7568359375,24.4384765625,23.6083984375,22.0947265625,21.6064453125,23.1689453125,25.4638671875,30.6884765625,34.6435546875,37.3291015625,40.3564453125,42.6513671875,43.9208984375,44.3115234375,43.2373046875,42.7490234375,42.7001953125,41.7236328125,41.9189453125,40.5029296875,39.5751953125,37.3291015625,35.5224609375,33.1298828125,31.2255859375,31.1767578125,28.5400390625,27.5634765625,25.7568359375,24.9267578125,23.2177734375,22.1923828125,20.7763671875,19.3603515625,18.2373046875,16.6748046875,16.7724609375,20.2880859375,24.8291015625,27.8564453125,31.7626953125,35.4736328125,37.7685546875,39.3798828125,40.4541015625,38.8427734375,38.1103515625,38.0615234375,37.5244140625,37.3779296875,36.6455078125,34.7412109375,33.0322265625,31.7138671875,30.1513671875,28.2470703125,26.6357421875,25.6591796875,23.9501953125,22.3388671875,21.7529296875,20.1416015625,19.2626953125,16.7724609375,16.5283203125,14.3798828125,13.6962890625,12.5244140625,13.5986328125,17.6025390625,22.5341796875,26.0986328125,28.9306640625,32.4462890625,34.6923828125,36.5478515625,37.1826171875,36.1572265625,35.7177734375,35.6201171875,35.6689453125,35.4248046875,33.2763671875,31.7138671875,30.7373046875,29.3701171875,27.4658203125,26.2451171875,25.2197265625,23.5107421875,22.1923828125,21.2158203125,20.1904296875,18.8720703125,18.1396484375,17.1630859375,15.7470703125,14.0869140625,13.5009765625,13.0126953125,16.1865234375,20.1416015625,24.6826171875,27.8564453125,30.7861328125,33.6181640625,35.5712890625,36.6455078125,35.6689453125,35.7177734375,35.3759765625,35.0341796875,35.0830078125,33.2275390625,31.5185546875,30.2978515625,28.3935546875,27.6611328125,25.1220703125,24.3896484375,23.3154296875,21.1669921875,20.0927734375,18.7744140625,17.0166015625,16.1865234375,15.0146484375,14.0380859375,12.5244140625,11.5478515625,10.2783203125,10.9619140625,15.5517578125,19.7021484375,23.5107421875,27.2705078125,31.4208984375,33.2275390625,35.3759765625,36.3525390625,35.5712890625,35.0341796875,35.0341796875,34.8388671875,35.0830078125,33.9599609375,31.8115234375,31.0302734375,28.8330078125,27.5634765625,25.4150390625,24.3408203125,22.8271484375,21.5576171875,20.3857421875,19.2626953125,18.0908203125,16.7724609375,15.2099609375,14.2333984375,13.0126953125,11.5478515625,10.6689453125,10.1806640625,14.6240234375,18.9208984375,23.5595703125,26.5869140625,30.0048828125,33.0810546875,34.6435546875,35.3759765625,35.2294921875,33.5693359375,33.9599609375,33.8134765625,33.1787109375,32.0556640625,31.7626953125,29.6142578125,28.0517578125,26.4892578125,24.0966796875,22.7783203125,22.1923828125,20.0927734375,18.8720703125,17.7001953125,16.7724609375,14.8681640625,13.9404296875,13.1103515625,11.8408203125,9.9853515625,8.9599609375,8.1787109375,11.5478515625,16.0888671875,20.2880859375,23.9013671875,26.7333984375,29.6142578125,31.2744140625,32.5927734375,31.4697265625,31.6162109375,31.1767578125,30.4931640625,30.2978515625,28.7841796875,28.0029296875,26.7822265625,25.0732421875,23.1201171875,21.6064453125,19.8974609375,18.1884765625,16.2841796875,15.0146484375,13.6474609375,12.5732421875,11.4990234375,10.2294921875,8.6181640625,7.2998046875,6.1279296875,4.6630859375,3.9794921875,6.3720703125,10.3759765625,14.0869140625,18.0419921875,21.2158203125,24.2919921875,27.0751953125,28.0517578125,27.4658203125,26.8798828125,26.1474609375,26.8310546875,26.1474609375,25.7080078125,24.0966796875,23.1689453125,21.2646484375,19.7021484375,18.3837890625,16.5771484375,15.2587890625,13.2080078125,12.5244140625,10.6201171875,9.9853515625,8.1787109375,7.6416015625,5.7373046875,4.9072265625,3.8330078125,3.2958984375,1.3427734375,0.5615234375,3.1005859375,7.6416015625,11.5478515625,15.3564453125,19.1650390625,21.4111328125,23.7060546875,25.3173828125,25.5126953125,24.9267578125,24.4873046875,25.0244140625,24.4384765625,23.4130859375,23.5595703125,22.2900390625,20.5810546875,18.9208984375,17.6513671875,16.9677734375,15.1123046875,13.3544921875,12.6220703125,12.0849609375,10.7666015625,10.1806640625,8.3740234375,7.2021484375,6.1767578125,4.6630859375,3.2958984375,2.9052734375,3.3935546875,7.8369140625,11.6455078125,15.3564453125,18.4814453125,21.6552734375,23.4130859375,26.0986328125,26.6845703125,25.8544921875,25.2197265625,25.6591796875,25.7568359375,25.1708984375,24.2919921875,23.6572265625,22.2900390625,20.7275390625,19.7021484375,17.8955078125,16.6259765625,15.1123046875,13.3056640625,12.4267578125,11.5478515625,9.8876953125,9.8876953125,8.6669921875,7.3486328125,6.5185546875,4.5654296875,4.2724609375,3.1982421875,5.5419921875,9.7900390625,14.0380859375,18.4326171875,22.1435546875,25.1220703125,27.2705078125,28.8330078125,28.4912109375,28.0029296875,27.9541015625,28.1494140625,28.5888671875,27.7587890625,27.6123046875,25.4638671875,24.5361328125,23.8037109375,22.0947265625,20.1904296875,19.6044921875,17.7490234375,16.5771484375,15.3076171875,14.0380859375,12.6708984375,11.2548828125,10.3271484375,8.6181640625,7.6904296875,6.5185546875,5.5419921875,4.8583984375,6.8115234375,12.0361328125,15.8447265625,20.2880859375,23.9990234375,26.4892578125,29.5654296875,30.7373046875,30.4443359375,30.0537109375,30.6396484375,29.9072265625,30.9814453125,29.4677734375,28.7841796875,27.9541015625,26.3916015625,24.8291015625,23.8037109375,21.6064453125,20.6298828125,19.2138671875,18.2861328125,16.7724609375,15.8447265625,13.9892578125,12.7685546875,12.4755859375,11.1083984375,9.7900390625,8.0322265625,7.3486328125,6.5673828125,8.4716796875,13.0615234375,17.3583984375,20.9716796875,23.7548828125,26.0009765625,28.5400390625,29.8095703125,29.4189453125,28.8330078125,28.7353515625,29.3701171875,29.5654296875,27.6611328125,27.1728515625,26.0986328125,23.9990234375,22.3388671875,21.1669921875,19.0673828125,17.8955078125,16.8212890625,15.6005859375,14.1845703125,12.0849609375,12.1337890625,10.3759765625,9.2529296875,8.7158203125,6.8115234375,5.6884765625,4.1748046875,4.5166015625,8.1298828125,11.6455078125,16.2841796875,19.7998046875,23.5595703125,25.7568359375,27.3681640625,28.3935546875,27.6123046875,26.2451171875,26.5869140625,27.0263671875,27.4169921875,25.4638671875,25.2685546875,23.7548828125,22.5341796875,20.9228515625,19.3603515625,18.5302734375,16.5771484375,15.5517578125,14.4287109375,13.1103515625,12.1337890625,11.2060546875,9.1064453125,7.9345703125,7.4951171875,6.3232421875,4.7119140625,3.5400390625,4.4677734375,9.0087890625,12.6220703125,17.1630859375,20.3369140625,23.1201171875,26.4404296875,28.4912109375,28.9794921875,28.8818359375,28.7353515625,28.7841796875,29.2724609375,29.1259765625,28.5400390625,27.6611328125,26.7822265625,25.3173828125,24.5361328125,22.0947265625,21.2646484375,19.7509765625,18.7255859375,17.1142578125,16.0888671875,15.7958984375,14.1845703125,13.5009765625,12.0361328125,11.0107421875,9.4970703125,8.3740234375,7.9345703125,9.3994140625,14.2333984375,18.2373046875,21.2158203125,24.4384765625,27.1240234375,30.0048828125,30.7373046875,31.2744140625,30.5908203125,30.6396484375,30.3955078125,30.3466796875,30.2001953125,29.0771484375,27.7587890625,25.7568359375,25.6103515625,24.2919921875,22.8271484375,22.1435546875,19.7021484375,18.7744140625,17.5048828125,16.2353515625,14.8193359375,15.0146484375,13.0615234375,11.3525390625,10.4736328125,9.6435546875,8.1298828125,7.7392578125,11.1572265625,15.8447265625,20.4833984375,23.2666015625,26.3427734375,29.2236328125,30.9814453125,31.9580078125,31.6650390625,31.7626953125,31.7138671875,31.3232421875,31.2744140625,31.1279296875,30.2001953125,29.1748046875,27.9541015625,26.8798828125,25.0732421875,23.7548828125,22.6806640625,20.6787109375,19.4580078125,19.1162109375,17.3583984375,16.9677734375,15.4052734375,14.4287109375,13.1591796875,11.5478515625,10.5712890625,9.4482421875,10.1806640625,14.1357421875,18.3837890625,22.2412109375,25.4638671875,28.5400390625,32.1044921875,33.5693359375,34.1552734375,34.4482421875,33.4716796875,34.6435546875,34.4970703125,34.1064453125,33.7646484375,32.9833984375,31.9580078125,30.4443359375,28.6376953125,27.1240234375,26.1474609375,25.0244140625,24.3408203125,22.6318359375,21.7041015625,20.1904296875,19.4091796875,18.3349609375,16.5283203125,15.5517578125,14.7216796875,12.4267578125,12.7685546875,16.0888671875,21.1181640625,24.5361328125,28.4423828125,30.5908203125,33.1787109375,35.2783203125,36.8896484375,37.1337890625,36.4013671875,36.4501953125,37.0849609375,36.9873046875,35.5712890625,34.6435546875,33.8623046875,31.9580078125,30.0048828125,29.4189453125,28.1982421875,27.2216796875,25.4150390625,24.3408203125,22.6806640625,21.6552734375,20.7763671875,19.3115234375,17.9931640625,16.4794921875,15.7470703125,14.0380859375,14.0869140625,17.1630859375,21.8505859375,25.3662109375,28.1494140625,31.5673828125,33.3251953125,35.4736328125,36.8408203125,35.6689453125,36.0107421875,36.1572265625,35.9130859375,35.4248046875,33.9599609375,33.6181640625,32.2509765625,30.7373046875,29.3212890625,27.9052734375,26.5869140625,24.6337890625,24.4873046875,23.2177734375,21.7529296875,21.0693359375,19.9951171875,18.2373046875,17.3583984375,16.2353515625,14.8193359375,13.1103515625,12.8662109375,13.9892578125,18.8720703125,23.1201171875,26.3427734375,30.1025390625,33.5205078125,36.1572265625,37.4267578125,37.5732421875,36.4990234375,36.9384765625,36.5478515625,36.6455078125,35.1318359375,34.5947265625,33.8623046875,32.6416015625,30.4443359375,29.2724609375,27.9541015625,26.3916015625,25.8056640625,24.3408203125,22.3876953125,21.4599609375,20.5322265625,19.2626953125,18.4814453125,16.9189453125,15.3076171875,13.9892578125,12.8173828125,13.5009765625,16.6748046875,21.3623046875,25.6103515625,28.0029296875,32.3486328125,35.4736328125,36.5966796875,37.4755859375,37.6220703125,36.8408203125,37.3779296875,36.9384765625,36.6943359375,36.2060546875,34.6923828125,33.5205078125,31.8115234375,29.9560546875,29.5166015625,28.1005859375,26.0986328125,25.0732421875,23.9501953125,22.9248046875,21.4599609375,20.5322265625,19.6044921875,17.7490234375,16.6748046875,15.8935546875,15.2099609375,14.9169921875,17.0166015625,20.7275390625,24.5849609375,27.8564453125,30.7861328125,33.4716796875,35.8642578125,36.8408203125,37.1826171875,35.8642578125,36.0595703125,36.2060546875,35.7666015625,35.2783203125,33.8134765625,32.5439453125,31.6162109375,30.2978515625,28.4912109375,27.4658203125,25.7568359375,24.7802734375,23.3642578125,22.4365234375,21.2158203125,20.1904296875,19.4580078125,18.5302734375,16.6748046875,15.8935546875,14.6728515625,13.8916015625,15.6494140625,19.6044921875,24.1455078125,27.4658203125,30.4931640625,33.1787109375,36.2060546875,37.7685546875,37.4267578125,37.2314453125,37.8662109375,37.7685546875,37.9638671875,37.1337890625,36.2548828125,34.9853515625,34.1552734375,32.5439453125,30.2978515625,28.5400390625,27.8564453125,26.6357421875,25.0244140625,23.5107421875,22.6318359375,22.5341796875,21.0205078125,19.2626953125,18.5791015625,17.3583984375,16.5283203125,15.4541015625,15.2587890625,18.3837890625,22.8271484375,27.6611328125,31.3232421875,34.6435546875,37.8173828125,39.7705078125,40.6982421875,40.4052734375,39.7705078125,39.5263671875,40.5517578125,39.4287109375,39.0380859375,37.5732421875,36.0595703125,34.9853515625,33.9599609375,32.4951171875,31.2255859375,29.3212890625,28.0517578125,27.1728515625,25.9521484375,25.2197265625,23.9013671875,22.8271484375,21.8017578125,20.4345703125,19.8974609375,18.7744140625,17.7001953125,21.2646484375,25.8056640625,29.5166015625,33.2275390625,36.4990234375,39.5263671875,41.8212890625,43.3349609375,42.5537109375,42.3583984375,41.8701171875,41.3818359375,41.4794921875,41.1865234375,39.2333984375,38.6962890625,36.7919921875,36.0595703125,34.1552734375,33.3251953125,31.9091796875,30.5908203125,29.4677734375,27.7587890625,26.5869140625,25.6591796875,24.1943359375,23.5595703125,21.4599609375,20.1904296875,19.3115234375,19.4091796875,23.4130859375,27.4169921875,31.0791015625,34.6923828125,37.8662109375,40.4052734375,41.5771484375,43.0419921875,42.2119140625,41.9677734375,42.2607421875,41.4794921875,40.8935546875,39.9169921875,38.1103515625,37.1826171875,35.9619140625,34.2529296875,33.4716796875,31.6162109375,31.2255859375,29.0283203125,28.0029296875,26.7333984375,25.1220703125,24.6337890625,22.8271484375,21.9482421875,20.5810546875,19.5556640625,18.8720703125,21.5576171875,25.4150390625,29.7119140625,33.7158203125,37.3779296875,40.3076171875,43.3837890625,44.8486328125,44.4091796875,43.7255859375,44.1162109375,43.9697265625,43.5791015625,43.0908203125,42.3583984375,40.9912109375,39.7216796875,38.1103515625,35.9619140625,34.5458984375,33.0810546875,32.1044921875,30.6884765625,29.5654296875,28.2470703125,27.5146484375,26.2939453125,24.5849609375,22.8759765625,22.0458984375,21.4111328125,21.2158203125,25.3662109375,29.6630859375,34.0087890625,37.1826171875,40.1611328125,43.8720703125,45.3369140625,46.5087890625,45.2880859375,44.7021484375,44.9462890625,45.0439453125,45.2392578125,43.9697265625,42.0166015625,40.9423828125,39.2333984375,38.0126953125,36.3037109375,34.5947265625,33.6181640625,32.2021484375,30.7373046875,30.2490234375,28.2958984375,26.6845703125,25.4638671875,23.9013671875,22.6806640625,21.4599609375,21.0693359375,24.7802734375,28.8330078125,33.0322265625,36.1572265625,40.2099609375,42.7001953125,44.5068359375,45.0439453125,44.7021484375,43.5302734375,43.3349609375,43.9208984375,42.9931640625,41.9677734375,40.0146484375,38.5498046875,36.8408203125,35.6689453125,33.8623046875,32.1533203125,30.9326171875,29.7607421875,28.4912109375,26.7333984375,25.8056640625,24.9267578125,23.0712890625,22.4853515625,20.9716796875,19.0185546875,18.2861328125,20.6298828125,24.5361328125,29.3701171875,32.9833984375,37.1826171875,40.0634765625,42.6025390625,44.7509765625,44.5556640625,43.1884765625,43.1884765625,43.4814453125,42.8955078125,42.4072265625,41.3818359375,40.0634765625,38.5009765625,36.8408203125,34.7900390625,33.0810546875,32.2998046875,31.2744140625,29.0283203125,27.9052734375,26.5869140625,25.9521484375,24.9267578125,23.3642578125,22.3388671875,20.6787109375,19.6044921875,19.5556640625,20.8251953125,25.4638671875,30.1513671875,33.7158203125,36.6943359375,40.4541015625,43.1884765625,44.7998046875,44.9462890625,43.4326171875,43.6767578125,43.7744140625,43.3349609375,42.3095703125,41.3330078125,40.0146484375
PPG_subj_11,69,M,Y,Diabetic (Type 2),136,33.9634,Earlobe,0.185546875,0.185546875,0.185546875,0.185546875,0.185546875,0.185546875,85.8251953125,-111.5771484375,-111.2353515625,-111.9677734375,-113.7255859375,-113.7744140625,-115.0927734375,-115.8740234375,-116.3134765625,-118.2177734375,-118.4619140625,-119.5361328125,-121.2451171875,-122.1240234375,-123.4912109375,-124.5166015625,-125.1025390625,-126.4208984375,-127.3974609375,-129.0576171875,-129.3017578125,-127.3486328125,-125.5908203125,-122.6611328125,-120.4638671875,-117.7294921875,-115.2880859375,-113.7744140625,-112.8466796875,-111.4306640625,-111.5283203125,-110.8447265625,-109.3310546875,-110.6005859375,-109.9658203125,-110.8447265625,-110.7470703125,-111.2353515625,-112.5537109375,-113.2861328125,-113.9697265625,-114.0673828125,-115.3857421875,-117.0947265625,-117.3876953125,-118.4619140625,-118.2666015625,-119.6826171875,-120.5615234375,-122.1728515625,-122.3681640625,-124.3701171875,-125.2978515625,-124.7119140625,-122.1728515625,-119.4873046875,-116.8505859375,-113.8720703125,-111.0400390625,-107.5732421875,-105.8642578125,-104.3017578125,-103.8134765625,-102.8857421875,-102.0556640625,-101.5673828125,-101.3232421875,-101.2255859375,-101.2255859375,-101.4697265625,-102.5927734375,-103.3740234375,-103.6181640625,-104.9853515625,-105.5224609375,-106.7919921875,-107.3779296875,-108.2568359375,-110.1611328125,-110.5517578125,-112.3095703125,-112.5048828125,-114.0673828125,-114.8486328125,-117.0458984375,-116.0205078125,-114.6044921875,-113.0908203125,-109.6728515625,-106.1572265625,-103.7646484375,-100.3466796875,-97.8076171875,-96.5869140625,-95.4638671875,-94.4873046875,-94.2919921875,-92.7783203125,-92.7294921875,-92.6806640625,-92.1923828125,-92.6318359375,-94.1943359375,-94.1943359375,-95.0244140625,-95.6591796875,-97.2216796875,-97.7099609375,-99.0283203125,-100.4443359375,-101.5185546875,-102.4951171875,-103.8134765625,-105.1806640625,-105.8642578125,-107.1337890625,-108.4033203125,-108.8916015625,-108.5498046875,-106.5478515625,-103.2763671875,-100.4443359375,-97.5634765625,-94.1943359375,-91.8505859375,-90.2392578125,-88.8232421875,-88.3349609375,-87.7001953125,-86.7236328125,-86.1376953125,-87.2607421875,-86.9677734375,-86.9189453125,-88.3837890625,-88.8232421875,-89.8486328125,-91.3623046875,-92.3876953125,-93.3642578125,-95.2685546875,-96.1474609375,-97.9541015625,-99.3701171875,-100.4443359375,-102.3974609375,-103.2763671875,-104.1552734375,-106.1083984375,-107.6220703125,-106.6455078125,-104.7412109375,-103.5205078125,-99.6630859375,-97.3681640625,-95.7080078125,-92.8271484375,-90.9228515625,-90.2392578125,-89.6533203125,-89.3603515625,-88.7744140625,-89.3603515625,-88.7744140625,-89.2626953125,-89.8974609375,-90.1904296875,-90.7275390625,-91.7529296875,-92.8271484375,-93.5107421875,-94.7802734375,-95.0732421875,-96.8798828125,-98.3935546875,-99.6630859375,-101.1767578125,-103.0322265625,-104.5947265625,-105.7177734375,-106.4501953125,-108.4521484375,-107.3779296875,-105.4248046875,-103.0810546875,-101.1279296875,-97.9541015625,-96.0986328125,-93.1689453125,-92.0458984375,-90.9228515625,-90.6787109375,-89.5556640625,-89.3603515625,-89.2138671875,-88.6279296875,-89.8486328125,-90.5322265625,-91.1181640625,-91.5087890625,-92.0947265625,-94.2431640625,-95.6103515625,-96.0986328125,-97.9541015625,-99.1259765625,-100.3466796875,-100.8837890625,-102.0556640625,-103.1787109375,-104.6923828125,-106.2548828125,-107.0361328125,-109.0380859375,-108.2080078125,-105.7666015625,-103.0810546875,-101.4208984375,-98.8330078125,-96.2451171875,-95.1220703125,-93.3154296875,-91.7041015625,-91.9482421875,-91.2158203125,-91.2158203125,-91.5087890625,-90.3369140625,-90.3369140625,-91.5087890625,-92.2412109375,-93.0224609375,-94.0966796875,-94.9755859375,-96.8310546875,-97.6611328125,-98.4912109375,-99.7119140625,-100.6396484375,-101.9580078125,-103.8623046875,-104.3017578125,-105.7666015625,-106.4990234375,-108.4521484375,-109.7216796875,-108.5009765625,-107.3779296875,-104.6923828125,-103.0810546875,-99.8095703125,-97.7587890625,-96.5869140625,-94.8779296875,-94.5849609375,-94.4873046875,-93.0712890625,-93.1689453125,-92.9248046875,-92.8759765625,-92.4853515625,-93.1201171875,-94.2919921875,-95.0244140625,-95.3662109375,-96.6845703125,-97.5634765625,-98.4912109375,-98.8330078125,-101.3720703125,-101.8603515625,-103.4228515625,-104.3994140625,-106.0595703125,-107.3779296875,-108.2080078125,-109.7216796875,-109.6728515625,-109.5751953125,-106.8408203125,-104.4482421875,-102.7392578125,-99.2724609375,-96.3916015625,-95.1220703125,-92.9248046875,-93.2177734375,-92.2900390625,-90.7763671875,-91.4599609375,-90.6787109375,-90.7763671875,-91.3134765625,-92.3876953125,-92.4365234375,-93.2666015625,-94.8291015625,-94.3408203125,-95.8056640625,-97.3193359375,-98.2958984375,-99.7119140625,-101.1279296875,-102.4951171875,-104.3505859375,-104.8876953125,-107.1337890625,-108.6474609375,-108.8427734375,-108.7939453125,-108.0126953125,-105.0341796875,-103.0322265625,-100.0048828125,-97.3681640625,-94.7802734375,-92.1435546875,-91.2158203125,-90.7275390625,-89.7998046875,-88.0908203125,-88.5791015625,-88.6767578125,-88.4814453125,-89.2626953125,-89.2626953125,-90.2392578125,-91.2158203125,-92.2900390625,-93.4619140625,-94.8779296875,-96.6845703125,-97.9541015625,-98.5888671875,-100.2001953125,-101.2255859375,-101.8115234375,-103.6669921875,-104.6923828125,-106.0595703125,-106.6943359375,-104.3505859375,-102.0556640625,-99.3701171875,-96.6845703125,-94.0478515625,-91.7529296875,-88.9697265625,-88.3349609375,-87.4072265625,-86.8212890625,-86.3330078125,-85.9423828125,-85.5517578125,-86.0400390625,-86.2353515625,-87.3095703125,-88.5302734375,-89.8486328125,-90.9228515625,-91.8017578125,-93.0712890625,-93.8525390625,-95.3173828125,-96.0498046875,-97.6123046875,-98.5888671875,-99.8095703125,-100.5419921875,-102.1044921875,-102.9345703125,-105.0341796875,-103.4716796875,-101.2744140625,-98.9794921875,-96.1962890625,-93.2177734375,-89.3603515625,-86.6748046875,-84.4775390625,-84.4775390625,-83.4521484375,-83.3056640625,-82.2314453125,-82.0849609375,-82.7685546875,-83.2568359375,-83.8427734375,-84.0380859375,-85.5517578125,-86.2353515625,-87.5048828125,-89.4091796875,-90.2392578125,-91.8994140625,-92.8271484375,-94.5361328125,-95.6591796875,-96.6357421875,-98.3935546875,-100.0537109375,-100.8837890625,-103.1787109375,-102.8857421875,-101.7626953125,-99.0771484375,-96.2939453125,-93.4130859375,-90.0927734375,-88.3349609375,-85.6005859375,-84.8193359375,-83.6474609375,-83.4521484375,-82.4267578125,-81.7431640625,-81.8896484375,-82.5732421875,-83.5009765625,-83.6962890625,-84.8193359375,-85.8935546875,-86.4794921875,-88.0908203125,-88.9697265625,-90.0927734375,-91.8994140625,-92.2900390625,-94.0966796875,-95.2685546875,-97.0263671875,-98.8818359375,-100.0537109375,-101.8603515625,-101.4208984375,-99.8095703125,-97.7099609375,-95.0732421875,-93.0224609375,-89.6044921875,-88.1396484375,-85.5029296875,-84.5263671875,-83.5009765625,-83.7451171875,-83.7451171875,-83.2568359375,-83.8916015625,-84.5751953125,-85.6982421875,-86.0888671875,-87.1630859375,-88.1884765625,-89.9462890625,-91.3134765625,-91.7041015625,-93.4130859375,-95.6591796875,-96.9287109375,-98.5400390625,-98.7353515625,-100.4931640625,-102.4462890625,-103.4228515625,-105.3271484375,-105.5712890625,-105.0830078125,-102.2998046875,-99.7119140625,-97.4169921875,-95.4638671875,-92.6318359375,-89.9951171875,-88.7255859375,-87.8466796875,-87.5537109375,-87.5537109375,-87.6513671875,-87.2119140625,-87.4560546875,-87.7978515625,-90.0927734375,-90.7275390625,-91.5087890625,-92.1923828125,-94.2431640625,-93.9990234375,-95.9033203125,-97.1728515625,-99.0771484375,-100.6884765625,-100.6884765625,-102.6416015625,-103.9599609375,-105.7177734375,-106.9384765625,-108.8916015625,-108.2080078125,-106.2060546875,-104.5458984375,-102.6904296875,-99.1259765625,-96.7333984375,-95.0732421875,-92.5830078125,-92.0458984375,-92.0458984375,-91.8017578125,-91.2158203125,-91.2158203125,-91.5087890625,-92.0458984375,-93.1201171875,-94.0966796875,-94.9755859375,-95.9033203125,-96.8310546875,-97.8564453125,-99.5166015625,-99.4189453125,-101.0791015625,-103.0322265625,-103.9599609375,-106.1572265625,-107.0361328125,-108.8427734375,-110.2587890625,-111.3330078125,-111.5283203125,-109.4775390625,-107.0361328125,-105.0341796875,-102.7392578125,-100.6884765625,-99.3701171875,-97.6123046875,-95.4638671875,-96.1962890625,-96.2939453125,-96.0498046875,-96.5380859375,-96.0498046875,-97.8564453125,-98.1005859375,-98.9794921875,-100.0048828125,-101.0302734375,-101.9580078125,-103.7646484375,-105.8154296875,-106.4501953125,-106.9873046875,-108.3056640625,-110.1611328125,-111.3818359375,-112.8955078125,-113.8720703125,-115.3857421875,-116.2158203125,-115.7275390625,-113.1884765625,-110.8935546875,-108.5498046875,-105.4736328125,-103.3740234375,-100.8837890625,-99.5654296875,-98.3447265625,-97.8076171875,-97.8564453125,-98.1005859375,-98.3935546875,-97.8564453125,-98.5888671875,-98.6865234375,-99.9072265625,-100.8349609375,-101.9580078125,-103.0810546875,-104.9853515625,-105.9130859375,-106.2060546875,-107.0361328125,-109.2333984375,-110.0146484375,-111.9189453125,-113.2373046875,-114.1162109375,-115.6787109375,-116.6064453125,-116.0205078125,-114.7509765625,-111.6748046875,-108.9892578125,-105.0830078125,-103.1298828125,-100.8349609375,-98.2958984375,-97.2705078125,-96.4404296875,-96.3916015625,-95.7080078125,-95.2197265625,-95.6103515625,-96.0009765625,-98.1494140625,-97.7587890625,-98.6865234375,-99.7607421875,-101.0302734375,-101.5185546875,-103.1298828125,-104.8876953125,-105.8642578125,-107.0361328125,-108.3056640625,-109.7705078125,-111.0888671875,-112.3095703125,-113.7255859375,-114.9951171875,-115.0439453125,-112.9443359375,-109.9169921875,-107.2802734375,-104.1064453125,-101.5185546875,-99.5654296875,-97.1240234375,-95.8056640625,-95.1220703125,-94.7314453125,-93.8525390625,-94.7802734375,-93.3642578125,-94.1455078125,-95.6103515625,-96.2939453125,-95.9521484375,-97.5634765625,-98.9306640625,-99.9072265625,-100.7373046875,-102.2509765625,-102.9833984375,-104.5947265625,-106.3037109375,-107.3779296875,-109.6728515625,-110.5029296875,-112.3095703125,-113.3349609375,-112.8955078125,-111.4306640625,-108.6474609375,-105.9130859375,-101.7626953125,-99.1259765625,-96.3427734375,-94.0478515625,-93.2177734375,-92.5830078125,-92.3388671875,-91.1181640625,-91.7041015625,-92.1435546875,-92.7783203125,-93.1689453125,-94.2919921875,-95.4638671875,-96.1474609375,-97.6123046875,-98.3935546875,-100.9814453125,-102.2021484375,-103.6181640625,-104.7900390625,-106.4501953125,-107.8173828125,-110.0634765625,-110.6005859375,-112.3583984375,-113.0908203125,-114.0185546875,-111.1376953125,-108.5009765625,-105.0341796875,-102.4462890625,-98.8330078125,-96.7333984375,-94.1455078125,-93.3642578125,-93.0224609375,-92.8271484375,-92.0947265625,-91.7041015625,-92.5830078125,-92.8759765625,-93.6572265625,-95.3662109375,-95.9521484375,-97.9052734375,-98.7841796875,-100.7373046875,-101.6650390625,-104.2041015625,-104.8388671875,-106.6943359375,-108.4521484375,-109.3798828125,-111.0888671875,-113.1884765625,-114.4580078125,-114.7021484375,-115.3369140625,-113.2861328125,-110.7958984375,-108.2568359375,-105.3759765625,-102.2021484375,-99.9560546875,-99.3212890625,-98.4912109375,-98.2958984375,-98.4912109375,-98.4912109375,-98.1982421875,-98.7353515625,-98.8330078125,-100.4443359375,-101.2255859375,-102.3486328125,-102.7392578125,-104.7900390625,-105.4736328125,-106.8408203125,-108.7939453125,-109.4775390625,-110.5517578125,-112.3095703125,-114.2138671875,-115.8251953125,-117.1923828125,-118.5595703125,-119.9267578125,-118.5107421875,-116.1181640625,-114.0185546875,-111.3330078125,-109.1845703125,-107.2802734375,-105.4736328125,-103.7646484375,-103.6181640625,-102.9345703125,-103.7646484375,-103.1787109375,-103.4228515625,-103.8623046875,-105.0830078125,-105.3271484375,-106.8896484375,-107.7197265625,-109.5751953125,-110.2099609375,-111.3330078125,-113.3349609375,-114.4580078125,-115.4345703125,-116.5087890625,-118.2666015625,-119.5849609375,-121.2939453125,-122.5634765625,-122.7587890625,-123.5400390625,-123.8330078125,-121.3916015625,-117.7294921875,-115.2392578125,-113.0419921875,-110.1611328125,-108.9892578125,-106.4013671875,-106.1083984375,-105.6689453125,-105.8154296875,-104.4970703125,-105.6689453125,-106.1572265625,-106.9873046875,-107.1826171875,-107.8662109375,-108.9892578125,-110.3564453125,-110.8447265625,-112.3583984375,-114.0185546875,-115.6298828125,-116.6552734375,-117.5830078125,-119.6337890625,-121.3916015625,-122.4169921875,-122.9052734375,-124.8583984375,-125.2001953125,-124.1748046875,-122.0263671875,-119.2431640625,-117.1923828125,-114.7998046875,-112.3095703125,-109.5263671875,-109.3310546875,-108.7939453125,-108.1103515625,-108.0615234375,-108.3056640625,-106.7919921875,-107.6708984375,-108.3056640625,-109.5751953125,-110.3564453125,-112.4560546875,-112.5048828125,-113.4326171875,-115.3857421875,-116.2646484375,-116.9970703125,-118.2177734375,-119.3896484375,-120.5615234375,-121.9775390625,-123.0517578125,-123.5888671875,-124.7119140625,-124.1748046875,-122.6123046875,-120.6103515625,-117.3876953125,-115.2880859375,-112.2607421875,-110.2099609375,-108.2080078125,-106.9384765625,-105.2783203125,-105.6201171875,-105.1318359375,-104.8388671875,-105.1318359375,-105.1806640625,-105.4736328125,-106.3525390625,-107.8662109375,-108.0615234375,-109.6728515625,-110.1611328125,-112.2119140625,-113.2373046875,-113.9208984375,-115.5810546875,-116.9970703125,-117.5341796875,-119.3408203125,-120.3173828125,-120.2197265625,-122.5634765625,-121.8798828125,-119.0966796875,-117.1923828125,-113.7255859375,-109.7216796875,-107.5244140625,-103.3740234375,-101.9091796875,-100.6396484375,-100.3466796875,-100.1513671875,-98.8818359375,-99.2236328125,-99.1259765625,-98.8818359375,-99.8583984375,-100.5908203125,-101.4697265625,-102.6904296875,-104.1552734375,-105.1806640625,-106.2548828125,-106.9384765625,-108.4521484375,-110.4052734375,-111.3330078125,-112.2607421875,-114.6044921875,-115.6787109375,-116.8017578125,-117.5830078125,-116.3623046875,-114.3115234375,-111.7236328125,-108.6474609375,-104.9365234375,-101.9091796875,-99.1259765625,-96.5869140625,-97.0263671875,-95.6591796875,-94.0478515625,-93.8037109375,-94.4384765625,-93.4619140625,-94.7802734375,-95.5126953125,-96.9775390625,-98.1494140625,-99.3212890625,-100.3955078125,-101.7626953125,-102.7392578125,-104.3505859375,-105.7666015625,-106.9873046875,-107.3779296875,-109.7216796875,-111.2353515625,-112.2607421875,-113.3837890625,-113.7255859375,-113.0419921875,-110.8447265625,-107.1826171875,-104.2529296875,-101.4697265625,-98.3447265625,-95.3662109375,-93.8525390625,-93.6083984375,-92.6318359375,-91.9970703125,-92.2900390625,-92.4853515625,-93.3154296875,-93.6572265625,-94.7802734375,-96.0498046875,-96.9287109375,-97.9541015625,-100.2978515625,-101.0302734375,-102.0556640625,-104.3017578125,-106.2060546875,-106.9873046875,-108.4521484375,-110.3076171875,-111.3330078125,-113.1396484375,-114.1162109375,-114.0185546875,-111.8701171875,-109.0380859375,-106.9384765625,-103.5693359375,-100.4443359375,-97.8564453125,-96.0498046875,-95.2685546875,-95.1220703125,-95.1220703125,-94.1943359375,-93.8525390625,-95.0244140625,-95.7568359375,-96.6845703125,-97.8564453125,-98.9794921875,-100.5908203125,-102.8857421875,-104.2529296875,-105.4248046875,-106.8408203125,-108.9404296875,-109.8193359375,-111.3818359375,-112.9931640625,-114.8974609375,-117.0947265625,-117.7294921875,-118.4130859375,-118.6572265625,-117.4853515625,-114.7021484375,-111.5771484375,-108.7451171875,-106.6943359375,-104.3017578125,-103.0322265625,-102.5439453125,-102.3486328125,-101.7626953125,-102.2998046875,-102.6416015625,-102.7392578125,-102.9833984375,-104.5947265625,-106.2060546875,-107.1826171875,-108.8916015625,-109.5751953125,-111.8701171875,-113.6279296875,-114.4580078125,-116.0693359375,-117.2900390625,-120.0732421875,-121.1962890625,-123.0029296875,-124.5654296875,-125.4443359375,-127.0068359375,-126.1279296875,-124.6142578125,-122.9052734375,-120.0732421875,-117.9248046875,-116.2646484375,-114.1162109375,-112.8466796875,-112.5537109375,-111.4306640625,-112.2119140625,-111.8701171875,-112.1142578125,-111.8212890625,-112.6513671875,-114.1650390625,-115.2392578125,-115.7275390625,-117.0458984375,-118.1689453125,-119.9267578125,-120.2685546875,-121.6845703125,-123.0029296875,-124.3701171875,-125.4931640625,-127.4462890625,-128.6669921875,-130.8154296875,-131.3525390625,-132.0849609375,-131.5966796875,-129.2529296875,-127.0556640625,-125.7373046875,-123.7353515625,-121.3916015625,-119.2431640625,-117.5830078125,-117.9248046875,-117.8271484375,-117.1923828125,-116.9482421875,-116.9970703125,-118.3154296875,-118.3642578125,-119.8779296875,-120.3173828125,-121.2451171875,-122.4658203125,-123.6376953125,-124.5654296875,-125.7861328125,-126.1279296875,-128.9111328125,-129.6923828125,-130.6201171875,-132.2802734375,-133.4521484375,-134.8193359375,-136.0888671875,-137.2119140625,-137.1142578125,-135.7470703125,-132.5244140625,-130.8154296875,-127.6416015625,-125.1513671875,-122.0751953125,-120.3173828125,-118.6572265625,-118.3154296875,-117.2900390625,-115.8740234375,-115.8251953125,-114.8974609375,-115.3369140625,-115.8740234375,-116.3134765625,-116.7041015625,-117.8271484375,-119.0478515625,-119.1943359375,-120.8544921875,-121.3916015625,-123.0517578125,-124.2724609375,-125.3466796875,-126.5673828125,-127.6416015625,-128.7158203125,-129.2529296875,-129.9853515625,-131.5966796875,-129.5947265625,-128.0322265625,-125.0048828125,-121.9287109375,-119.0966796875,-116.4111328125,-111.9189453125,-111.4306640625,-109.5751953125,-108.6962890625,-107.6708984375,-107.0361328125,-106.6455078125,-107.0361328125,-107.3291015625,-107.5244140625,-108.3544921875,-108.8427734375,-110.2587890625,-111.4306640625,-112.7001953125,-113.1396484375,-114.4091796875,-115.2392578125,-116.4599609375,-118.4619140625,-119.1455078125,-120.4638671875,-122.4658203125,-122.8564453125,-124.3701171875,-123.6376953125,-121.4404296875,-118.1689453125,-115.1416015625,-111.7236328125,-108.3056640625,-104.8876953125,-101.9091796875,-101.2744140625,-100.1025390625,-99.5166015625,-99.1748046875,-98.9794921875,-98.3935546875,-99.0771484375,-100.1513671875,-101.0791015625,-102.1044921875,-103.2763671875,-104.4482421875,-106.1083984375,-107.1826171875,-108.5009765625,-109.8681640625,-111.4794921875,-112.9931640625,-114.4091796875,-116.1669921875,-116.7041015625,-118.2666015625,-120.0244140625,-119.8779296875,-119.5361328125,-116.5087890625,-113.4814453125,-110.6982421875,-106.5478515625,-102.2998046875,-99.0771484375,-96.2939453125,-94.9755859375,-94.5361328125,-94.3896484375,-93.9013671875,-93.8037109375,-93.4619140625,-94.0966796875,-96.0009765625,-96.2451171875,-97.8076171875,-98.5400390625,-99.5654296875,-100.7861328125,-103.1787109375,-105.0830078125,-106.5478515625,-108.2568359375,-109.0380859375,-111.4306640625,-112.9443359375,-114.1650390625,-115.9228515625,-116.8017578125,-117.8759765625,-116.0205078125,-113.1396484375,-110.0146484375,-107.6220703125,-104.3994140625,-101.0791015625,-98.8818359375,-98.0517578125,-97.2705078125,-96.7822265625,-96.0986328125,-96.4404296875,-96.5380859375,-96.9775390625,-98.2958984375,-98.9306640625,-100.4931640625,-102.0068359375,-103.3251953125,-104.8388671875,-106.5966796875,-107.5244140625,-109.4287109375,-110.5517578125,-111.9189453125,-114.1162109375,-114.7509765625,-116.8017578125,-118.5595703125,-120.4638671875,-121.6357421875,-121.3916015625,-118.9013671875,-116.5087890625,-114.4580078125,-111.3818359375,-108.8427734375,-107.0361328125,-105.4248046875,-105.0830078125,-104.5458984375,-104.5947265625,-104.2529296875,-104.6435546875,-105.4248046875,-105.9619140625,-106.2548828125,-107.8173828125,-108.5009765625,-109.9169921875,-111.0888671875,-112.4560546875,-113.8232421875,-115.5322265625,-116.1669921875,-118.5107421875,-120.4150390625,-121.3916015625,-122.7099609375,-124.2236328125,-125.0048828125,-126.1279296875,-125.8349609375,-123.1982421875,-121.0498046875,-117.6318359375,-115.6298828125,-113.2373046875,-110.5029296875,-107.6220703125,-108.5986328125,-107.7197265625,-107.5732421875,-108.1103515625,-107.1826171875,-107.7197265625,-108.8916015625,-109.7705078125,-109.7216796875,-111.5771484375,-112.8466796875,-114.9462890625,-115.6298828125,-117.2900390625,-118.6083984375,-119.7314453125,-120.7568359375,-122.8076171875,-124.0771484375,-125.6884765625,-127.3974609375,-128.9111328125,-128.4716796875,-127.0556640625,-125.9326171875,-123.3935546875,-120.3662109375,-118.8037109375,-115.7275390625,-113.9697265625,-112.8955078125,-112.7978515625,-112.3583984375,-111.8701171875,-111.5771484375,-111.4306640625,-112.6025390625,-113.0908203125,-113.0419921875,-115.1416015625,-116.3623046875,-117.0947265625,-118.7548828125,-120.2685546875,-121.1474609375,-122.8076171875,-124.9560546875,-126.3232421875,-127.2998046875,-129.1064453125,-129.3017578125,-131.3525390625,-132.2802734375,-131.0107421875,-129.9365234375,-127.0556640625,-124.6630859375,-122.6123046875,-119.9755859375,-118.1201171875,-115.8740234375,-116.0693359375,-115.0927734375,-114.8974609375,-114.5556640625,-114.2138671875,-113.7744140625,-115.2392578125,-116.0205078125,-116.6552734375,-117.9248046875,-118.9990234375,-120.9521484375,-121.2939453125,-122.7099609375,-122.8076171875,-124.4677734375,-125.4931640625,-127.1044921875,-128.8134765625,-130.0341796875,-130.7666015625,-131.8896484375,-132.5732421875,-130.1806640625,-128.0322265625,-125.4931640625,-122.1240234375,-118.1689453125,-115.3857421875,-112.7490234375,-110.2099609375,-110.6005859375,-109.1357421875,-108.5986328125,-108.0615234375,-108.0126953125,-107.2802734375,-108.6474609375,-109.0380859375,-110.6005859375,-111.3818359375,-112.2607421875,-112.6513671875,-114.1650390625,-114.5068359375,-116.8017578125,-117.6318359375,-119.4873046875,-121.0009765625,-122.5634765625,-123.6376953125,-124.9560546875,-125.0537109375,-124.6630859375,-121.8798828125,-118.8037109375,-116.5576171875,-112.5537109375,-109.9169921875,-106.3037109375,-102.9345703125,-102.0556640625,-101.1279296875,-100.6396484375,-99.3212890625,-99.6142578125,-99.6142578125,-99.6142578125,-100.7373046875,-101.3720703125,-102.0068359375,-103.9599609375,-104.4970703125,-106.0107421875,-106.9873046875,-108.6962890625,-110.0634765625,-111.4794921875,-112.5537109375,-113.3837890625,-114.7509765625,-115.8740234375,-116.9482421875,-118.1689453125,-116.6064453125,-113.5302734375,-109.6240234375,-107.0849609375,-103.0322265625,-100.6884765625,-97.7587890625,-95.3173828125,-94.6826171875,-94.8779296875,-94.0966796875,-93.1689453125,-93.6083984375,-94.0478515625,-94.7802734375,-96.5380859375,-97.4169921875,-98.1494140625,-99.0771484375,-100.6884765625,-101.7626953125,-104.6435546875,-105.1806640625,-106.8408203125,-108.3544921875,-109.3798828125,-111.5771484375,-112.6025390625,-113.5791015625,-115.6298828125,-114.6533203125,-111.6259765625,-108.6474609375,-105.3271484375,-101.8115234375,-98.3935546875,-94.6826171875,-92.0947265625,-91.2646484375,-90.5810546875,-90.0927734375,-89.9951171875,-89.8486328125,-90.4345703125,-89.9951171875,-92.1923828125,-92.6318359375,-94.2431640625,-95.9033203125,-97.1728515625,-98.1982421875,-99.6142578125,-101.2744140625,-103.1787109375,-104.5458984375,-105.6689453125,-107.5244140625,-109.0380859375,-111.0888671875,-112.5537109375,-112.9443359375,-112.2119140625,-108.9404296875,-107.3291015625,-103.1298828125,-99.5166015625,-95.9521484375,-93.4130859375,-91.8994140625,-91.5087890625,-91.7041015625,-91.2646484375,-91.1669921875,-91.8505859375,-91.0205078125,-92.3876953125,-92.7294921875,-93.9501953125,-96.1474609375,-97.4658203125,-98.5888671875,-99.9560546875,-102.0068359375,-103.7646484375,-105.0341796875,-106.1572265625,-108.5498046875,-109.8681640625,-111.6259765625,-112.4072265625,-115.7275390625,-116.1669921875,-113.9697265625,-112.7490234375,-109.7216796875,-107.4755859375,-103.7646484375,-101.4697265625,-98.9306640625,-97.4169921875,-97.5146484375,-96.2451171875,-95.7080078125,-95.7568359375,-96.3916015625,-95.8056640625,-97.9052734375,-98.6376953125,-100.0048828125,-101.2744140625,-102.5439453125,-104.0576171875,-105.2294921875,-106.9384765625,-108.1591796875,-109.2333984375,-110.9912109375,-112.5048828125,-114.0673828125,-115.7275390625,-117.0458984375,-118.0224609375,-117.8271484375,-117.0458984375,-114.7509765625,-112.4560546875,-110.1123046875,-106.9873046875,-105.4248046875,-102.5927734375,-102.9345703125,-102.7392578125,-101.8115234375,-101.7626953125,-102.2998046875,-102.8369140625,-103.2763671875,-104.2041015625,-104.9365234375,-105.9619140625,-107.3291015625,-108.9404296875,-109.3798828125,-110.6494140625,-111.7724609375,-113.6767578125,-115.4833984375,-116.9482421875,-118.4619140625,-120.0244140625,-122.2705078125,-122.9052734375,-124.2724609375,-123.1494140625,-121.5380859375,-119.4873046875,-116.8505859375,-114.2138671875,-111.9189453125,-109.6240234375,-107.7685546875,-107.0361328125,-106.3525390625,-106.2060546875,-105.9619140625,-106.1572265625,-106.5478515625,-106.8896484375,-107.6708984375,-109.3310546875,-110.6494140625,-111.3330078125,-112.2607421875,-113.7255859375,-115.1416015625,-116.9970703125,-117.4853515625,-119.5849609375,-120.3173828125,-122.2216796875,-122.9541015625,-124.7119140625,-126.0302734375,-127.2998046875,-126.2255859375,-124.1259765625,-122.1240234375,-119.5361328125,-116.8505859375,-114.6044921875,-111.9677734375,-110.4541015625,-109.8193359375,-109.1357421875,-108.9892578125,-107.6708984375,-106.9873046875,-108.2080078125,-108.5009765625,-108.2568359375,-109.8681640625,-110.4541015625,-111.4794921875,-113.2373046875,-114.2626953125,-115.5810546875,-116.4599609375,-117.2900390625,-118.7548828125,-120.5615234375,-121.6357421875,-123.2470703125,-124.3212890625,-126.4697265625,-126.8603515625,-125.1025390625,-122.9541015625,-120.6591796875,-117.8271484375,-115.5810546875,-112.4072265625,-109.6240234375,-107.6708984375,-107.4267578125,-106.9384765625,-106.5966796875,-106.0107421875,-105.7666015625,-106.3525390625,-106.2548828125,-107.8173828125,-107.5732421875,-108.5986328125,-109.8681640625,-111.5771484375,-111.9189453125,-113.0908203125,-114.4580078125,-115.5810546875,-116.1181640625,-117.5341796875,-119.2431640625,-120.1708984375,-121.1962890625,-122.5146484375,-123.3935546875,-120.4638671875,-118.1689453125,-115.1416015625,-112.3583984375,-108.5498046875,-105.4248046875,-102.2998046875,-101.9091796875,-100.0537109375,-99.0283203125,-98.7841796875,-97.9541015625,-97.1240234375,-97.9052734375,-98.2470703125,-98.8330078125,-100.0537109375,-100.4443359375,-101.7626953125,-103.1298828125,-104.5947265625,-105.3271484375,-106.0107421875,-107.4267578125,-108.7451171875,-110.2587890625,-111.6259765625,-112.2607421875,-113.7255859375,-114.7021484375,-115.7763671875,-113.3837890625,-111.2353515625,-108.0615234375,-103.7158203125,-100.6884765625,-97.5634765625,-94.6826171875,-92.0947265625,-92.0458984375,-92.0458984375,-90.9228515625,-90.3369140625,-90.3369140625,-90.6298828125,-90.4833984375,-91.4111328125,-93.2666015625,-93.9501953125,-94.8291015625,-95.1708984375,-97.1728515625,-97.6123046875,-99.5654296875,-101.1767578125,-102.2509765625,-104.3505859375,-104.7900390625,-106.2060546875,-108.3056640625,-109.7705078125,-109.4287109375,-107.9150390625,-104.4482421875,-101.1279296875,-98.7353515625,-95.5615234375,-92.5830078125,-90.2392578125,-89.4580078125,-89.3115234375,-88.5791015625,-89.2138671875,-88.1884765625,-88.5791015625,-89.3603515625,-89.8974609375,-90.5810546875,-92.0947265625,-92.9248046875,-95.1708984375,-96.0986328125,-96.7822265625,-98.9306640625,-100.0537109375,-101.8115234375,-103.0322265625,-104.8876953125,-105.7177734375,-107.4267578125,-109.3798828125,-110.2587890625,-109.1845703125,-106.5966796875,-104.8388671875,-101.3232421875,-98.8818359375,-95.2197265625,-92.8271484375,-90.8251953125,-91.5087890625,-91.1669921875,-90.8740234375,-91.0205078125,-90.8740234375,-90.9716796875,-91.7041015625,-92.6806640625,-93.4619140625,-95.0244140625,-96.0986328125,-97.2705078125,-98.9306640625,-100.1513671875,-101.8603515625,-102.6416015625,-104.6435546875,-104.6923828125,-106.8896484375,-108.6474609375,-109.8681640625,-110.5029296875,-112.8466796875,-111.9677734375,-110.2587890625,-106.9384765625,-104.5947265625,-101.7138671875,-98.8818359375,-96.1474609375,-94.2919921875,-93.8037109375,-93.5107421875,-92.6318359375,-92.8759765625,-92.5341796875,-93.6083984375,-94.6826171875,-96.2451171875,-96.0009765625,-97.0751953125,-99.0283203125,-100.4931640625,-101.3720703125,-103.2275390625,-105.0341796875,-106.5478515625,-107.8662109375,-109.8681640625,-111.3330078125,-112.0654296875,-113.4814453125,-116.2646484375,-116.7529296875,-116.5576171875,-115.0439453125,-112.7001953125,-110.6982421875,-108.3544921875,-105.5224609375,-104.0087890625,-102.5439453125,-101.5673828125,-101.4208984375,-102.0068359375,-100.9814453125,-100.5419921875,-101.6650390625,-101.7626953125,-102.7880859375,-102.9345703125,-104.3505859375,-105.5224609375,-106.3037109375,-107.2802734375,-108.5009765625,-110.9423828125,-111.9189453125,-112.4072265625,-114.1650390625,-114.6533203125,-116.6552734375,-118.5107421875,-119.8779296875,-121.1474609375,-120.6591796875,-119.2431640625,-116.6552734375,-114.8486328125,-111.9677734375,-110.8935546875,-108.1103515625,-107.1826171875,-105.4248046875,-106.3525390625,-105.9619140625,-105.9619140625,-105.7666015625,-105.8642578125,-106.4013671875,-107.7685546875,-108.1591796875,-110.2099609375,-109.7705078125,-110.5029296875,-112.3095703125,-113.3837890625,-114.3115234375,-116.5087890625,-117.0947265625,-119.0478515625,-119.1455078125,-122.3193359375,-123.1982421875,-124.2724609375,-125.4443359375,-126.2255859375,-123.1982421875,-121.1474609375,-119.0966796875,-115.7763671875,-114.0185546875,-111.6259765625,-109.1357421875,-107.8662109375,-107.6220703125,-106.8408203125,-106.9873046875,-106.9384765625,-106.4013671875,-106.9873046875,-107.6220703125,-108.2568359375,-109.4287109375,-109.4775390625,-110.7958984375,-111.1376953125,-112.2607421875,-113.6767578125,-114.8974609375,-116.2646484375,-117.6806640625,-118.9013671875,-120.0732421875,-120.8056640625,-122.5146484375,-122.7587890625,-123.0517578125,-121.9775390625,-118.9990234375,-116.9970703125,-114.3603515625,-111.6748046875,-109.6728515625,-107.5244140625,-105.1318359375,-104.5947265625,-104.2041015625,-103.3740234375,-102.6416015625,-103.1298828125,-103.0322265625,-103.3740234375,-104.3994140625,-104.7412109375,-105.9619140625,-107.6708984375,-108.0615234375,-109.3798828125,-110.4541015625,-111.5283203125,-112.7490234375,-114.1162109375,-114.6044921875,-116.0205078125,-117.0947265625,-118.2666015625,-119.0478515625,-117.4853515625,-114.7998046875,-112.3583984375,-109.4775390625,-106.5966796875,-103.5693359375,-101.0791015625,-98.4912109375,-97.6611328125,-97.1728515625,-96.0986328125,-94.8291015625,-94.7314453125,-94.4384765625,-95.6591796875,-95.7568359375,-97.0751953125,-98.3447265625,-99.1259765625,-100.1025390625,-100.4931640625,-101.2255859375,-102.4462890625,-104.1064453125,-105.1806640625,-106.2060546875,-107.7685546875,-109.4775390625,-110.6982421875,-111.1376953125,-112.6513671875,-109.8193359375,-107.7685546875,-104.0087890625,-100.8837890625,-97.4658203125,-93.3642578125,-89.9462890625,-87.6025390625,-87.0166015625,-86.6259765625,-85.7958984375,-85.0634765625,-85.8935546875,-85.8935546875,-86.0888671875,-87.3583984375,-88.0419921875,-89.5068359375,-90.0927734375,-92.0947265625,-92.9248046875,-94.8291015625,-96.6845703125,-97.0263671875,-99.1748046875,-100.6884765625,-102.1533203125,-103.3740234375,-104.9365234375,-105.8154296875,-105.6201171875,-103.7646484375,-100.7861328125,-97.5634765625,-94.0966796875,-90.6787109375,-88.2861328125,-86.1376953125,-84.6728515625,-85.2587890625,-83.5009765625,-84.1845703125,-84.4775390625,-84.6240234375,-84.7705078125,-86.1865234375,-86.8212890625,-88.6767578125,-89.7509765625,-91.0693359375,-91.9482421875,-93.9501953125,-95.0732421875,-96.1962890625,-97.8564453125,-99.1259765625,-101.0791015625,-102.0068359375,-104.2529296875,-105.6689453125,-106.0107421875,-104.2041015625,-102.5927734375,-98.9306640625,-95.3662109375,-93.0224609375,-90.3369140625,-87.2119140625,-87.0166015625,-86.5771484375,-85.8935546875,-85.9423828125,-85.9423828125,-86.5771484375,-87.1142578125,-87.4560546875,-89.2626953125,-90.2880859375,-90.8251953125,-93.4619140625,-94.5849609375,-96.4404296875,-97.7099609375,-99.1259765625,-101.0302734375,-102.2021484375,-104.3505859375,-105.7666015625,-107.4267578125,-108.9404296875,-109.4775390625,-108.9404296875,-107.3291015625,-104.2529296875,-101.0302734375,-99.0771484375,-96.3916015625,-93.3642578125,-91.9482421875,-91.2646484375,-91.4599609375,-91.5087890625,-91.1181640625,-91.5576171875,-92.1435546875,-92.0947265625,-93.7548828125,-94.5849609375,-96.2451171875,-97.4169921875,-99.1259765625,-100.6884765625,-101.7138671875,-103.5693359375,-105.3271484375,-106.6455078125,-107.9638671875,-110.1611328125,-111.0888671875,-112.7001953125,-114.1162109375,-115.4345703125,-114.0673828125,-112.6025390625,-110.3076171875,-107.1337890625,-105.5224609375,-102.5927734375,-99.7607421875,-99.5654296875,-98.4912109375,-98.5400390625,-98.4423828125,-97.2216796875,-97.9541015625,-98.1982421875,-99.8095703125,-100.2001953125,-101.0302734375,-103.4228515625,-104.3505859375,-105.1318359375,-106.6943359375,-107.9150390625,-109.1357421875,-110.5517578125,-112.1630859375,-113.5791015625,-115.2880859375,-116.7041015625,-118.1689453125,-119.8779296875,-118.8037109375,-117.3876953125,-115.0439453125,-112.6513671875,-111.1376953125,-108.5986328125,-106.0107421875,-104.3994140625,-104.3994140625,-104.1064453125,-102.8369140625,-104.1552734375,-103.3251953125,-103.5693359375,-105.2294921875,-104.9853515625,-106.3525390625,-107.9150390625,-108.4033203125,-109.4775390625,-111.4794921875,-111.7236328125,-113.2861328125,-114.7021484375,-115.8740234375,-117.0458984375,-118.0224609375,-119.7802734375,-121.2451171875,-121.4404296875,-120.2197265625,-119.2431640625,-116.4111328125,-113.6279296875,-110.0146484375,-108.3544921875,-105.3271484375,-104.1552734375,-102.9833984375,-102.7880859375,-102.2509765625,-102.0068359375,-101.6650390625,-101.5673828125,-102.0068359375,-103.2763671875,-104.2529296875,-105.0830078125,-106.1572265625,-107.0361328125,-108.6962890625,-109.3310546875,-110.5517578125,-112.1142578125,-113.2373046875,-114.7509765625,-116.2158203125,-117.0947265625,-119.1943359375,-119.9267578125,-118.6083984375,-116.8017578125,-114.3603515625,-111.2353515625,-108.6474609375,-105.3759765625,-102.2021484375,-100.4443359375,-98.8330078125,-98.3447265625,-97.5146484375,-96.8798828125,-97.0751953125,-97.0751953125,-97.0263671875,-98.3447265625,-99.4677734375,-99.5166015625,-101.1279296875,-101.8603515625,-103.1787109375,-104.9853515625,-105.5224609375,-106.8408203125,-108.0615234375,-110.1611328125,-110.8935546875,-112.8955078125,-113.9208984375,-115.3857421875,-115.4833984375,-112.9931640625,-110.5029296875,-107.2802734375,-104.1064453125,-100.5419921875,-97.9541015625,-94.2919921875,-93.0224609375,-92.7783203125,-91.4599609375,-90.8251953125,-90.8740234375,-90.8251953125,-91.3623046875,-92.0947265625,-93.8525390625,-94.7314453125,-94.3408203125,-96.5380859375,-97.3193359375,-98.6865234375,-100.5908203125,-102.5927734375,-103.3251953125,-104.4482421875,-106.0595703125,-107.2314453125,-109.6240234375,-110.2587890625,-110.0146484375,-107.0849609375,-104.7412109375,-101.9091796875,-97.6611328125,-94.5849609375,-91.8505859375,-87.7978515625,-86.3818359375,-86.3330078125,-85.3564453125,-84.4775390625,-84.3798828125,-84.1357421875,-84.1845703125,-85.5517578125,-86.3330078125,-86.9677734375,-88.3349609375,-90.0439453125,-91.5576171875,-93.5107421875,-95.2685546875,-95.7568359375,-98.1494140625,-99.9560546875,-101.1279296875,-103.1298828125,-104.3505859375,-105.6201171875,-106.3525390625,-104.3505859375,-100.8837890625,-98.1494140625,-94.6826171875,-90.9228515625,-88.4814453125,-83.8427734375,-81.3037109375,-80.5224609375,-79.8876953125,-79.1064453125,-79.0576171875,-79.2041015625,-80.1806640625,-80.5712890625,-81.7919921875,-82.8662109375,-85.4052734375,-86.0888671875,-87.6025390625,-89.3115234375,-90.5810546875,-92.6318359375,-94.2431640625,-96.4404296875,-98.4423828125,-100.2001953125,-100.2978515625,-102.1044921875,-103.8623046875,-104.3505859375,-102.5439453125,-99.9560546875,-97.0751953125,-94.2431640625,-90.7763671875,-87.2607421875,-85.1123046875,-83.5986328125,-83.7939453125,-83.5986328125,-83.3056640625,-83.5009765625,-83.8427734375,-84.3310546875,-85.6494140625,-86.5771484375,-88.2861328125,-89.8486328125,-91.0693359375,-92.9248046875,-94.3896484375,-96.2939453125,-97.7587890625,-99.5166015625,-101.0791015625,-102.5439453125,-104.1064453125,-105.9130859375,-107.9150390625,-108.8427734375,-107.3779296875,-104.5947265625,-102.5439453125,-99.8583984375,-97.5146484375,-93.9013671875,-91.6552734375,-90.9716796875,-90.5810546875,-90.6787109375,-90.3369140625,-90.1416015625,-90.5322265625,-90.8251953125,-91.9482421875,-93.0712890625,-94.6826171875,-96.0009765625,-97.5634765625,-98.6865234375,-100.4443359375,-101.8115234375,-104.0087890625,-105.9130859375,-107.4755859375,-108.6474609375,-110.1123046875,-111.4306640625,-113.6767578125,-115.0439453125,-114.7998046875,-112.9931640625,-111.0888671875,-108.8916015625,-107.2802734375,-103.2275390625,-100.0048828125,-98.2958984375,-96.3916015625,-96.2939453125,-96.2451171875,-94.8779296875,-95.2685546875,-95.4150390625,-96.3427734375,-97.3193359375,-98.1982421875,-99.0771484375,-100.8349609375,-101.7138671875,-104.2041015625,-105.2783203125,-106.1083984375,-108.8916015625,-109.9658203125,-111.8212890625,-112.9931640625,-114.9462890625,-116.3623046875,-118.1689453125,-118.7060546875,-118.4130859375,-116.7529296875,-115.1416015625,-112.6025390625,-109.8193359375,-107.5244140625,-104.3994140625,-102.5439453125,-102.0556640625,-101.3720703125,-101.1279296875,-100.9326171875,-100.8349609375,-101.2744140625,-102.1044921875,-102.3486328125,-103.2275390625,-104.1064453125,-106.0595703125,-107.7197265625,-108.1103515625,-110.2587890625,-111.4794921875,-112.9443359375,-113.8232421875,-115.1904296875,-116.7529296875,-118.1201171875,-120.3662109375,-121.4404296875,-122.4169921875,-122.0751953125,-119.5361328125,-118.0224609375,-115.3369140625,-113.3349609375,-110.6005859375,-107.7197265625,-105.4248046875,-105.3759765625,-104.9853515625,-104.3994140625,-104.2529296875,-104.4970703125,-104.5458984375,-105.2294921875,-105.7177734375,-107.4267578125,-108.3544921875,-108.7939453125,-110.5029296875,-111.6748046875,-113.3837890625,-114.8974609375,-115.9716796875,-117.1923828125,-119.4873046875,-120.9521484375,-121.4892578125,-123.9306640625,-125.4443359375,-125.9814453125,-125.3955078125,-122.2705078125,-120.0732421875,-117.2900390625,-113.8720703125,-110.3076171875,-107.8173828125,-106.1083984375,-104.7412109375,-104.5947265625,-102.8369140625,-102.7880859375,-102.2021484375,-102.4951171875,-102.8369140625,-103.5693359375,-104.1064453125,-105.2783203125,-106.2548828125,-107.9638671875,-109.2333984375,-110.5029296875,-111.6259765625,-113.5791015625,-115.0927734375,-115.7275390625,-117.7783203125,-118.8037109375,-120.4150390625,-121.9287109375,-122.0263671875,-119.8291015625,-118.7548828125,-115.3857421875,-112.5048828125,-108.6962890625,-105.2783203125,-102.7392578125,-99.3701171875,-98.4912109375,-97.2705078125,-97.3681640625,-95.9033203125,-96.1962890625,-95.0244140625,-96.5869140625,-97.2216796875,-97.9541015625,-98.6865234375,-99.5654296875,-100.6884765625,-102.9833984375,-104.1064453125,-105.6201171875,-107.2802734375,-107.5244140625,-109.4775390625,-110.4052734375,-111.8212890625,-113.9697265625,-114.9462890625,-117.2900390625,-115.6298828125,-113.7255859375,-110.1611328125,-108.0126953125,-104.5458984375,-100.5419921875,-97.5146484375,-94.7314453125,-92.7783203125,-92.5341796875,-91.8994140625,-90.9228515625,-90.9228515625,-91.8994140625,-92.6806640625,-93.4619140625,-94.0478515625,-95.6591796875,-96.6845703125,-97.8076171875,-99.3701171875,-100.2001953125,-102.0068359375,-102.9345703125,-104.2529296875,-105.9130859375,-107.2802734375,-109.0380859375,-111.0888671875,-112.7490234375,-113.5302734375,-114.9951171875,-112.6025390625,-109.4775390625,-106.7431640625,-102.8857421875,-99.9560546875,-96.2939453125,-94.3408203125,-92.2900390625,-91.9970703125,-91.3623046875,-90.9228515625,-90.8251953125,-90.6787109375,-91.0205078125,-91.7041015625,-92.7294921875,-94.0966796875,-95.5126953125,-97.0751953125,-98.5400390625,-100.1025390625,-101.3720703125,-102.7392578125,-104.5947265625,-106.0107421875,-107.6220703125,-109.1845703125,-110.8935546875,-112.3583984375,-113.6279296875,-114.6044921875,-114.4091796875,-113.6279296875,-110.5517578125,-107.1826171875,-104.6923828125,-101.1767578125,-97.6123046875,-95.7568359375,-93.9990234375,-93.7060546875,-92.5830078125,-92.3388671875,-91.6552734375,-91.7529296875,-92.2412109375,-92.1923828125,-93.7060546875,-94.8291015625,-96.0009765625,-96.9287109375,-98.0517578125,-100.0537109375,-101.8115234375,-103.3740234375,-104.5458984375,-106.3037109375,-107.3779296875,-110.0146484375,-111.4306640625,-112.9443359375,-114.0673828125,-115.4345703125,-115.8251953125,-112.8955078125,-110.7958984375,-108.5986328125,-106.1083984375,-102.0556640625,-100.8349609375,-97.8076171875,-97.4658203125,-97.0263671875,-96.9775390625,-96.7333984375,-96.0986328125,-96.9287109375,-97.0263671875,-98.3935546875,-98.9794921875,-100.9326171875,-102.1533203125,-104.2041015625,-104.9853515625,-106.8896484375,-107.7197265625,-108.6474609375,-110.9912109375,-112.7001953125,-113.6279296875,-115.8740234375,-117.0458984375,-117.9248046875,-119.4384765625,-120.5126953125,-118.9990234375,-117.2900390625,-114.8974609375,-112.6025390625,-110.1123046875,-107.9638671875,-106.1083984375,-104.7412109375,-103.0810546875,-102.8857421875,-101.9091796875,-102.2998046875,-102.9345703125,-102.3974609375,-102.7392578125,-104.4482421875,-104.8876953125,-106.4013671875,-106.8408203125,-107.9150390625,-109.6240234375,-110.3076171875,-111.7724609375,-113.4326171875,-114.8486328125,-116.5576171875,-117.2412109375,-118.8525390625,-120.8544921875,-122.1728515625,-123.8818359375,-124.7119140625,-123.3935546875,-121.0986328125,-119.1943359375,-116.9482421875,-112.7490234375,-111.1865234375,-109.6728515625,-107.3291015625,-107.1826171875,-106.2548828125,-106.5966796875,-105.8154296875,-105.2783203125,-106.4013671875,-105.8642578125,-106.7919921875,-107.4755859375,-108.6962890625,-110.0146484375,-111.7724609375,-111.8212890625,-114.0185546875,-114.7021484375,-116.4599609375,-116.9970703125,-118.8525390625,-119.9755859375,-122.1728515625,-122.8564453125,-124.7607421875,-125.3466796875,-126.5673828125,-125.7861328125,-124.0771484375,-121.0009765625,-118.8525390625,-116.1669921875,-114.8974609375,-111.6259765625,-109.1845703125,-109.9658203125,-108.5498046875,-108.3056640625,-108.3544921875,-108.1103515625,-108.6962890625,-108.6962890625,-109.8681640625,-109.2822265625,-111.4794921875,-111.6259765625,-112.7978515625,-114.4091796875,-115.4345703125,-117.4365234375,-117.8759765625,-119.4384765625,-120.7080078125,-122.0751953125,-123.3935546875,-124.9072265625,-125.9814453125,-127.3486328125,-127.2509765625,-126.0791015625,-123.6376953125,-121.7822265625,-118.5595703125,-116.2158203125,-113.8720703125,-111.4306640625,-110.3076171875,-109.0380859375,-109.0869140625,-107.7685546875,-107.7197265625,-107.4267578125,-107.3291015625,-107.9150390625,-108.2568359375,-109.3798828125,-110.6494140625,-111.5283203125,-111.8701171875,-114.1650390625,-114.3603515625,-116.1181640625,-117.9248046875,-118.2666015625,-119.3896484375,-120.8056640625,-122.2705078125,-123.9306640625,-125.6396484375,-126.4697265625,-126.7626953125,-124.6630859375,-122.1728515625,-119.8291015625,-116.1181640625,-112.5537109375,-109.7705078125,-106.5478515625,-104.7412109375,-103.8623046875,-103.3251953125,-102.3486328125,-101.6650390625,-101.2255859375,-100.9326171875,-101.1767578125,-101.8115234375,-102.3974609375,-103.1298828125,-104.4482421875,-105.9130859375,-106.4501953125,-107.7197265625,-108.1103515625,-111.0400390625,-111.2353515625,-112.3095703125,-114.4580078125,-115.4345703125,-116.5087890625,-117.6318359375,-118.8525390625,-119.5849609375,-117.8759765625,-115.9716796875,-112.6513671875,-110.2587890625,-106.7919921875,-102.5927734375,-100.2978515625,-97.9052734375,-97.8076171875,-96.8310546875,-95.2197265625,-94.9267578125,-94.6826171875,-95.0244140625,-94.3408203125,-96.1962890625,-97.3193359375,-97.6611328125,-98.6865234375,-100.4931640625,-101.4208984375,-102.4462890625,-104.1552734375,-105.6201171875,-106.6943359375,-107.7197265625,-109.8681640625,-110.9423828125,-112.8466796875,-114.3115234375,-115.4345703125,-115.2880859375,-113.2373046875,-110.8935546875,-106.9873046875,-104.1064453125,-101.2255859375,-98.0029296875,-95.2197265625,-94.8291015625,-94.9755859375,-93.9013671875,-93.9501953125,-92.9736328125,-93.5107421875,-94.7802734375,-95.9521484375,-96.5380859375,-97.3681640625,-100.0048828125,-100.9814453125,-101.2744140625,-102.8369140625,-104.7900390625,-105.8642578125,-106.8408203125,-108.6962890625,-110.0146484375,-111.9189453125,-113.1884765625,-113.6767578125,-115.0927734375,-116.4111328125,-115.0927734375,-112.2607421875,-109.8681640625,-106.4501953125,-104.1552734375,-100.1025390625,-97.9541015625,-95.9033203125,-95.8544921875,-95.3662109375,-94.7802734375,-94.5849609375,-94.8291015625,-94.2431640625,-95.4150390625,-96.5380859375,-97.0751953125,-98.5400390625,-99.3701171875,-101.7138671875,-102.4462890625,-103.3251953125,-104.7900390625,-106.0595703125,-108.1103515625,-109.4287109375,-111.0400390625,-112.0654296875,-113.2373046875,-114.6044921875,-116.0693359375,-115.1904296875,-113.0419921875,-111.2353515625,-108.3544921875,-106.2060546875,-103.2763671875,-101.0791015625,-98.5400390625,-97.8564453125,-98.2470703125,-97.1240234375,-97.5146484375,-96.3427734375,-97.6611328125,-97.5146484375,-98.8818359375,-99.3701171875,-100.8349609375,-102.3486328125,-103.6181640625,-104.4482421875,-106.0595703125,-107.3779296875,-107.9150390625,-110.2099609375,-111.9677734375,-113.0908203125,-114.7021484375,-116.6552734375,-118.0224609375,-119.6337890625,-119.8779296875,-118.1689453125,-115.9716796875,-113.8232421875,-111.7724609375,-108.9404296875,-107.5244140625,-105.1318359375,-104.1064453125,-104.0576171875,-102.7880859375,-103.1298828125,-102.8369140625,-103.5693359375,-104.8388671875,-105.0830078125,-106.4013671875,-107.3291015625,-108.0126953125,-109.3798828125,-111.0888671875,-112.7978515625,-113.7255859375,-114.8486328125,-116.2646484375,-117.5341796875,-119.0966796875,-119.7314453125,-121.6357421875,-123.0029296875,-123.8330078125,-124.5654296875,-123.0517578125,-120.9521484375,-118.5595703125,-116.4599609375,-112.7490234375,-109.6728515625,-107.8173828125,-107.0849609375,-105.7666015625,-105.0830078125,-104.3017578125,-103.3740234375,-104.3505859375,-103.9599609375,-104.5458984375,-105.3759765625,-106.1572265625,-107.7197265625,-108.9892578125,-109.2822265625,-110.9912109375,-112.1142578125,-114.0185546875,-114.5068359375,-115.4833984375,-117.5830078125,-119.1455078125,-119.9267578125,-121.4404296875,-122.9541015625,-123.0517578125,-123.1982421875,-119.8779296875,-118.5107421875,-115.2880859375,-112.5537109375,-109.5263671875,-106.9384765625,-104.3017578125,-103.8623046875,-102.0068359375,-101.5673828125,-101.8603515625,-101.2744140625,-102.0556640625,-102.7880859375,-102.8857421875,-104.5458984375,-105.1318359375,-107.1337890625,-107.4267578125,-108.2080078125,-110.2099609375,-112.0166015625,-113.1396484375,-115.1416015625,-116.4599609375,-117.1923828125,-117.4853515625,-119.3408203125,-120.6591796875,-121.6845703125,-121.1474609375,-119.2919921875,-116.7529296875,-114.2138671875,-110.6982421875,-108.2568359375,-105.7177734375,-102.0068359375,-102.1533203125,-100.0048828125,-100.0537109375,-99.4189453125,-98.6865234375,-98.9794921875,-99.8583984375,-100.5908203125,-101.7626953125,-102.1044921875,-104.3994140625,-105.2783203125,-106.1572265625,-107.0361328125,-108.2568359375,-109.9169921875,-111.4306640625,-112.2607421875,-114.0185546875,-114.7998046875,-115.9228515625,-117.8271484375,-119.5361328125,-118.7548828125,-115.9228515625,-113.8720703125,-110.5517578125,-107.3291015625,-103.8623046875,-100.2490234375,-97.7099609375,-97.1728515625,-96.3916015625,-95.9521484375,-95.6103515625,-94.6826171875,-95.4150390625,-95.6591796875,-95.9033203125,-97.2216796875,-98.4423828125,-99.1259765625,-100.6884765625,-101.6162109375,-104.6923828125,-105.3759765625,-107.1337890625,-107.9638671875,-110.0634765625,-110.9423828125,-113.3837890625,-115.1416015625,-116.6064453125,-117.7783203125,-118.9990234375,-117.4853515625,-114.5068359375,-112.1630859375,-108.5498046875,-106.1572265625,-103.6669921875,-100.6884765625,-98.4912109375,-98.5888671875,-97.9541015625,-97.3681640625,-97.1728515625,-97.3193359375,-98.2470703125,-99.1748046875,-100.4443359375,-100.7861328125,-102.4951171875,-105.1318359375,-105.2294921875,-106.6943359375,-108.0126953125,-109.4775390625,-111.5771484375,-112.9931640625,-114.5556640625,-116.0693359375,-118.1689453125,-118.9013671875,-119.9267578125,-121.4892578125,-121.1474609375,-118.8037109375,-116.6552734375,-114.1162109375,-110.5029296875,-107.5732421875,-105.1806640625,-104.3505859375,-103.5205078125,-102.6416015625,-103.0810546875,-102.7880859375,-103.6669921875,-103.4716796875,-104.2041015625,-104.2529296875,-106.1083984375,-107.8173828125,-109.0869140625,-109.7216796875,-111.1865234375,-112.4560546875,-115.3857421875,-116.8994140625,-117.8271484375,-118.4130859375,-120.0244140625,-121.6845703125,-123.6865234375,-124.8095703125,-126.8603515625,-126.3720703125,-124.8095703125,-123.8330078125,-121.4404296875,-118.3642578125,-115.8251953125,-112.9931640625,-110.6982421875,-109.6240234375,-108.5009765625,-109.0380859375,-108.1591796875,-108.2568359375,-108.5986328125,-109.5263671875,-109.8681640625,-111.7236328125,-112.1142578125,-113.4326171875,-115.2880859375,-116.7041015625,-118.4619140625,-119.7802734375,-121.2451171875,-123.3447265625,-125.0048828125,-125.7861328125,-127.5439453125,-128.8134765625,-130.5712890625,-132.4755859375,-133.1103515625,-133.4033203125,-132.6220703125,-131.0595703125,-128.6669921875,-127.2021484375,-124.4677734375,-122.4658203125,-119.8779296875,-118.6083984375,-118.2666015625,-118.6083984375,-118.6083984375,-118.1201171875,-117.8759765625,-117.9736328125,-118.5107421875,-120.5126953125,-120.3173828125,-121.8310546875,-123.2470703125,-124.1748046875,-125.0537109375,-126.7138671875,-128.3251953125,-129.5458984375,-130.6689453125,-132.0849609375,-134.2333984375,-135.6005859375,-136.6259765625,-138.1884765625,-138.8232421875,-140.3369140625,-137.9931640625,-136.4794921875,-134.0869140625,-132.0361328125,-129.1064453125,-128.0322265625,-125.9814453125,-124.5166015625,-123.5888671875,-122.3681640625,-122.8076171875,-121.7333984375,-121.8310546875,-122.9541015625,-122.7587890625,-123.2958984375,-124.3212890625,-125.2978515625,-126.6650390625,-126.7626953125,-128.1787109375,-129.4970703125,-129.9365234375,-131.5966796875,-131.6455078125,-133.7451171875,-135.0146484375,-135.7470703125,-137.1142578125,-138.2373046875,-139.4580078125,-139.4091796875,-138.2373046875,-135.7470703125,-133.7939453125,-131.2548828125,-127.2509765625,-125.2978515625,-123.0029296875,-121.5380859375,-120.2685546875,-118.5107421875,-118.4130859375,-117.8759765625,-116.6064453125,-118.2177734375,-117.8271484375,-118.9990234375,-119.2431640625,-119.9267578125,-121.0498046875,-121.6357421875,-122.8076171875,-123.9306640625,-125.4931640625,-125.8837890625,-127.2021484375,-129.0576171875,-129.7412109375,-130.9619140625,-132.5244140625,-133.7939453125,-134.7216796875,-135.7470703125,-136.0888671875,-133.3056640625,-131.2060546875,-128.3251953125,-126.3232421875,-122.4658203125,-119.8291015625,-118.5107421875,-117.1435546875,-115.2880859375,-115.3369140625,-113.7255859375,-112.7978515625,-113.0908203125,-113.0908203125,-114.2626953125,-114.4091796875,-114.8974609375,-116.0693359375,-117.5341796875,-117.9736328125,-118.8525390625,-120.3662109375,-121.4404296875,-121.9775390625,-124.2724609375,-125.2978515625,-126.8115234375,-128.1298828125,-128.9599609375,-130.2294921875,-130.9130859375,-130.3759765625,-129.4482421875,-127.0068359375,-124.5654296875,-120.8544921875,-118.2666015625,-115.0439453125,-112.1142578125,-110.9423828125,-110.1123046875,-109.4775390625,-109.7705078125,-108.2568359375,-108.5009765625,-108.3056640625,-108.8427734375,-109.2822265625,-110.3564453125,-110.9423828125,-111.5283203125,-113.3837890625,-113.9697265625,-115.5810546875,-117.3876953125,-117.4853515625,-119.3408203125,-120.4638671875,-121.8310546875,-122.5146484375,-123.7353515625,-124.9072265625,-126.6650390625,-126.7626953125,-125.5908203125,-122.9052734375,-119.6826171875,-116.7529296875,-114.2138671875,-110.8447265625,-108.7451171875,-105.9619140625,-104.6435546875,-104.9853515625,-103.8134765625,-103.3740234375,-103.1787109375,-102.9833984375,-103.0810546875,-104.3017578125,-105.3271484375,-105.4736328125,-107.6220703125,-108.9892578125,-109.6240234375,-110.9423828125,-112.3095703125,-112.9931640625,-114.2138671875,-115.4345703125,-117.1435546875,-118.4130859375,-119.8779296875,-121.0986328125,-122.2216796875,-123.3935546875,-124.7607421875,-123.6865234375,-120.8544921875,-118.9013671875,-116.3623046875,-112.2607421875,-109.5751953125,-107.3779296875,-105.4248046875,-104.8876953125,-104.5458984375,-104.0576171875,-104.3505859375,-103.4228515625,-103.8623046875,-104.3505859375,-105.5224609375,-105.9619140625,-107.3779296875,-108.9404296875,-109.8193359375,-110.7470703125,-112.5537109375,-113.8232421875,-115.4345703125,-116.6552734375,-118.4619140625,-118.9990234375,-120.3173828125,-121.8798828125,-123.4423828125,-123.9306640625,-126.5185546875,-125.9326171875,-125.2978515625,-122.7587890625,-120.1220703125,-117.9248046875,-115.6298828125,-112.9443359375,-110.7470703125,-109.6728515625,-109.1845703125,-108.1591796875,-107.9150390625,-107.6220703125,-108.2568359375,-108.6474609375,-109.3310546875,-109.1845703125,-110.2587890625,-111.6748046875,-112.7490234375,-113.4814453125,-114.5556640625,-116.1181640625,-117.7783203125,-118.6083984375,-119.5849609375,-120.9033203125,-122.5634765625,-123.8818359375,-125.3955078125,-125.3466796875,-127.7880859375,-128.2275390625,-127.6416015625,-125.5419921875,-123.7353515625,-121.6357421875,-118.0224609375,-116.3134765625,-114.4580078125,-112.5048828125,-111.3330078125,-111.6259765625,-110.4541015625,-110.0634765625,-110.5029296875,-109.3798828125,-109.9169921875,-110.6494140625,-110.9423828125,-111.6748046875,-113.0908203125,-114.0185546875,-115.2880859375,-116.6064453125,-117.8759765625,-117.7783203125,-119.2919921875,-120.9521484375,-121.8798828125,-123.2958984375,-123.0517578125,-124.9560546875,-125.4931640625,-127.2509765625,-127.5927734375,-126.5673828125,-124.3701171875,-122.0751953125,-119.1943359375,-117.5830078125,-115.0439453125,-112.0654296875,-111.1376953125,-109.8681640625,-109.3798828125,-108.7451171875,-108.6474609375,-107.5732421875,-107.9150390625,-107.5244140625,-108.5009765625,-109.1845703125,-110.1611328125,-110.6982421875,-112.3583984375,-113.2373046875,-113.9208984375,-115.9716796875,-116.5087890625,-117.1923828125,-118.3642578125,-119.9755859375,-120.2685546875,-122.2705078125,-123.4423828125,-124.4189453125,-125.4931640625,-124.9072265625,-123.3447265625,-120.0732421875,-118.3642578125,-115.8740234375,-113.4814453125,-111.3818359375,-109.3310546875,-108.1103515625,-108.0615234375,-106.9384765625,-106.7919921875,-106.1572265625,-106.4501953125,-106.4990234375,-107.7197265625,-108.6474609375,-108.8427734375,-110.7470703125,-111.0888671875,-112.0166015625,-112.5537109375,-114.3115234375,-115.4833984375,-115.8251953125,-117.7294921875,-118.4619140625,-120.3662109375,-120.7568359375,-122.0751953125,-122.9541015625,-124.3701171875,-124.8095703125,-122.9052734375,-121.3916015625,-118.4130859375,-116.5087890625,-113.6767578125,-111.7724609375,-109.4775390625,-108.5986328125,-108.0615234375,-107.1826171875,-106.4501953125,-106.4990234375,-105.8154296875,-106.5478515625,-106.4990234375,-107.0849609375,-108.0615234375,-108.8916015625,-110.0146484375,-110.7958984375,-111.9189453125,-113.2373046875,-114.5068359375,-115.6787109375,-116.9482421875,-117.6318359375,-119.2431640625,-120.8056640625,-121.1474609375,-122.5634765625,-123.5888671875,-125.1025390625,-124.7607421875,-122.4658203125,-119.6337890625,-117.1435546875,-114.3115234375,-111.2353515625,-107.7685546875,-106.2548828125,-104.5947265625,-104.3017578125,-103.8134765625,-102.8369140625,-102.6904296875,-102.2509765625,-102.8369140625,-102.9345703125,-103.5205078125,-104.5458984375,-105.6201171875,-105.9619140625,-107.0849609375,-107.2802734375,-109.3798828125,-111.0400390625,-112.1630859375,-113.2373046875,-114.4580078125,-115.3857421875,-116.5576171875,-117.7783203125,-119.5361328125,-120.1708984375,-119.7802734375,-118.0224609375,-114.8486328125,-112.8466796875,-110.6982421875,-107.8662109375,-105.1806640625,-102.3974609375,-102.1044921875,-100.9814453125,-100.7373046875,-99.8583984375,-99.6630859375,-100.0048828125,-99.9072265625,-101.1767578125,-102.0556640625,-102.0556640625,-103.2763671875,-104.7900390625,-106.0595703125,-107.1337890625,-107.3291015625,-109.1845703125,-109.8681640625,-110.5517578125,-112.6513671875,-113.1396484375,-114.4580078125,-115.1904296875,-117.0947265625,-117.6318359375,-116.1181640625,-113.5302734375,-110.4541015625,-108.5009765625,-105.2294921875,-102.6416015625,-100.2001953125,-98.0517578125,-97.5146484375,-97.0263671875,-96.6845703125,-96.0009765625,-95.6591796875,-96.2451171875,-97.0751953125,-97.2705078125,-98.5888671875,-98.7841796875,-100.6884765625,-102.2509765625,-103.7158203125,-104.2529296875,-105.8154296875,-106.8896484375,-108.5009765625,-109.9658203125,-111.6259765625,-112.2607421875,-114.5068359375,-115.2392578125,-116.4599609375,-117.4853515625,-116.9970703125,-114.3115234375,-112.3583984375,-109.0380859375,-105.4736328125,-103.0322265625,-100.3466796875,-97.4169921875,-96.7822265625,-95.9521484375,-95.9521484375,-95.3173828125,-94.6826171875,-94.9755859375,-95.6591796875,-96.5380859375,-97.9541015625,-98.2958984375,-99.6142578125,-101.1767578125,-102.4462890625,-104.3505859375,-105.3759765625,-107.2314453125,-108.2568359375,-110.1123046875,-111.2841796875,-112.6513671875,-114.3603515625,-115.9716796875,-116.6064453125,-118.5595703125,-118.0712890625,-116.0205078125,-114.4580078125,-111.7724609375,-108.4521484375,-105.7666015625,-103.4228515625,-101.5673828125,-100.7373046875,-100.4443359375,-99.8583984375,-98.4912109375,-98.7353515625,-99.1259765625,-99.0771484375,-100.3466796875,-100.4443359375,-101.7138671875,-102.9345703125,-103.8134765625,-104.6435546875,-106.3525390625,-107.2314453125,-108.8427734375,-110.3076171875,-110.9423828125,-112.2607421875,-113.0908203125,-114.5068359375,-115.6298828125,-117.9736328125,-118.6572265625,-119.3408203125,-118.0224609375,-115.2880859375,-113.0419921875,-110.3076171875,-107.8173828125,-105.5224609375,-103.1298828125,-102.4462890625,-102.2509765625,-101.2744140625,-100.7861328125,-100.2001953125,-100.9814453125,-100.5908203125,-101.7138671875,-102.4951171875,-102.8857421875,-103.4716796875,-104.9853515625,-105.8642578125,-106.5478515625,-108.5009765625,-109.1845703125,-110.8935546875,-111.3818359375,-112.9931640625,-114.6044921875,-115.2880859375,-116.8505859375,-117.3388671875,-119.1943359375,-119.5361328125,-117.5341796875,-116.4599609375,-114.0673828125,-110.6494140625,-108.7939453125,-106.0107421875,-104.3017578125,-102.6416015625,-102.2021484375,-101.3720703125,-101.2744140625,-100.7373046875,-100.7861328125,-101.1767578125,-101.1767578125,-101.5185546875,-102.1533203125,-103.6669921875,-105.2783203125,-105.7666015625,-106.9873046875,-107.7685546875,-109.5751953125,-110.0634765625,-111.4794921875,-112.5048828125,-113.7255859375,-114.5068359375,-115.6298828125,-116.8505859375,-118.1201171875,-118.9990234375,-117.7294921875,-115.4833984375,-112.6025390625,-110.2587890625,-107.0849609375,-104.9365234375,-101.4697265625,-99.3212890625,-98.9306640625,-99.2236328125,-98.4423828125,-97.3681640625,-97.2705078125,-96.7822265625,-97.9541015625,-98.1982421875,-98.5888671875,-100.2978515625,-101.0791015625,-102.0068359375,-102.7880859375,-104.3505859375,-106.0595703125,-106.6943359375,-108.0126953125,-110.2099609375,-110.6494140625,-112.4072265625,-114.0185546875,-115.0927734375,-116.6064453125,-116.8017578125,-116.2646484375,-113.8720703125,-110.6494140625,-108.3056640625,-105.3759765625,-102.7880859375,-100.4931640625,-98.7841796875,-98.9306640625,-98.4912109375,-98.1494140625,-97.0263671875,-97.4169921875,-98.1005859375,-97.7099609375,-98.9306640625,-99.3212890625,-99.9560546875,-101.5673828125,-102.4462890625,-102.8857421875,-104.3505859375,-105.9619140625,-107.0361328125,-109.0380859375,-110.0634765625,-111.8212890625,-112.4072265625,-114.1650390625,-115.2880859375,-116.4111328125,-115.8740234375,-113.7744140625,-111.1376953125,-108.5986328125,-105.1806640625,-102.0068359375,-100.0048828125,-97.2216796875,-96.0498046875,-95.2197265625,-93.6083984375,-93.8037109375,-93.4130859375,-93.2666015625,-93.5595703125,-93.6572265625,-94.4873046875,-95.2685546875,-96.5869140625,-98.2470703125,-99.1259765625,-100.2978515625,-101.8603515625,-103.2763671875,-104.5947265625,-105.5712890625,-107.3291015625,-109.2333984375,-110.8935546875,-111.4794921875,-112.4072265625,-113.6767578125,-111.8701171875,-109.6728515625,-106.4013671875,-103.1298828125,-100.6396484375,-96.7822265625,-94.8779296875,-92.9248046875,-92.1923828125,-92.0458984375,-91.8017578125,-91.2646484375,-91.0205078125,-91.5087890625,-91.9970703125,-92.9248046875,-94.3408203125,-95.4638671875,-96.8310546875,-98.1982421875,-99.3701171875,-100.9326171875,-101.9580078125,-104.3505859375,-106.0107421875,-106.7919921875,-108.5986328125,-110.0146484375,-110.8447265625,-112.7490234375,-113.9697265625,-113.0908203125,-110.2099609375,-107.6708984375,-105.1806640625,-102.5439453125,-99.1748046875,-96.3916015625,-93.7060546875,-93.5595703125,-93.1689453125,-91.7041015625,-92.2412109375,-93.1201171875,-92.3388671875,-94.4384765625,-95.3662109375,-96.1474609375,-97.1240234375,-98.2470703125,-100.0048828125,-101.4697265625,-102.4462890625,-103.7158203125,-105.5712890625,-106.7431640625,-108.3544921875,-110.2587890625,-111.6748046875,-112.7978515625,-114.0185546875,-114.5068359375,-113.9697265625,-111.3330078125,-108.1103515625,-105.8154296875,-102.9345703125,-99.6142578125,-98.1005859375,-95.1708984375,-94.6826171875,-95.0732421875,-93.9013671875,-93.9013671875,-93.6572265625,-93.2177734375,-94.2431640625,-95.3173828125,-96.0498046875,-96.0498046875,-98.4423828125,-99.3701171875,-100.2001953125,-102.2509765625,-102.5927734375,-103.8623046875,-105.9619140625,-106.8408203125,-108.7451171875,-109.7705078125,-111.8212890625,-112.5537109375,-113.5791015625,-113.4814453125,-111.0400390625,-107.8173828125,-105.3759765625,-102.2509765625,-99.8095703125,-96.0498046875,-93.9990234375,-92.9736328125,-92.5341796875,-91.6552734375,-90.8740234375,-90.5810546875,-90.9716796875,