PPG_subj_08,48,M,N,Non-diabetic,118,36.2079,Forehead,1.1865234375,1.1865234375,1.1865234375,1.1865234375,1.1865234375,1.1865234375,1.1865234375,1.1865234375,1.1865234375,1.1865234375,1.1865234375,1.1865234375,1.1865234375,1.1865234375,1.1865234375,1.1865234375,1.1865234375,1.1865234375,1.1865234375,1.1865234375,1.1865234375,1.1865234375,1.1865234375,1.1865234375,1.1865234375,1.1865234375,1.1865234375,1.1865234375,1.1865234375,1.1865234375,1.1865234375,1.1865234375,1.1865234375,1.1865234375,1.1865234375,1.1865234375,1.1865234375,1.1865234375,1.1865234375,1.1865234375,1.1865234375,1.1865234375,1.1865234375,1.1865234375,1.1865234375,1.1865234375,1.1865234375,1.1865234375,1.1865234375,1.1865234375,1.1865234375,1.1865234375,1.1865234375,1.1865234375,1.1865234375,1.1865234375,1.1865234375,1.1865234375,1.1865234375,1.1865234375,99.7900390625,-96.3134765625,-94.2138671875,-92.9443359375,-93.7744140625,-95.0927734375,-95.2880859375,-96.0205078125,-96.5576171875,-98.1201171875,-99.0966796875,-100.7080078125,-101.9287109375,-103.2958984375,-104.5654296875,-105.2490234375,-106.1767578125,-107.3486328125,-108.2763671875,-108.4716796875,-109.5947265625,-111.2060546875,-112.6220703125,-113.4521484375,-114.5263671875,-113.0126953125,-107.4951171875,-102.8076171875,-99.8779296875,-96.8505859375,-93.8720703125,-92.2119140625,-91.9677734375,-94.1650390625,-95.7275390625,-94.8486328125,-96.3623046875,-96.7529296875,-97.8271484375,-99.5849609375,-101.8798828125,-104.0771484375,-105.9814453125,-107.5439453125,-108.8623046875,-110.0341796875,-111.3037109375,-111.7919921875,-113.4521484375,-113.8916015625,-115.6982421875,-117.6025390625,-118.5302734375,-118.4814453125,-113.8427734375,-109.0576171875,-105.2001953125,-101.4404296875,-98.4130859375,-95.6787109375,-93.9208984375,-93.1396484375,-95.7275390625,-96.2646484375,-95.8740234375,-97.2412109375,-99.0478515625,-100.6103515625,-103.0517578125,-103.7841796875,-105.8837890625,-107.2509765625,-108.3740234375,-109.4970703125,-111.5478515625,-111.6943359375,-113.1591796875,-113.8916015625,-115.9912109375,-117.2119140625,-118.0908203125,-119.1650390625,-118.9208984375,-115.3564453125,-111.1572265625,-106.7626953125,-103.8330078125,-100.1708984375,-97.6318359375,-95.6298828125,-94.6533203125,-96.4111328125,-97.1923828125,-97.2900390625,-98.9990234375,-100.1708984375,-101.0986328125,-103.5400390625,-104.6630859375,-106.1279296875,-107.5927734375,-108.6181640625,-110.4248046875,-111.7919921875,-112.3291015625,-113.5009765625,-114.5263671875,-115.3564453125,-116.7724609375,-117.7490234375,-118.8720703125,-119.7509765625,-118.8720703125,-114.8193359375,-109.5458984375,-106.2744140625,-103.2470703125,-99.3408203125,-97.2900390625,-95.2880859375,-96.1181640625,-97.4365234375,-97.4853515625,-98.7548828125,-99.2919921875,-101.0986328125,-102.4658203125,-104.2236328125,-105.3466796875,-106.9580078125,-108.5693359375,-108.9599609375,-110.9130859375,-112.1337890625,-113.5986328125,-114.6728515625,-115.7470703125,-117.4072265625,-118.0908203125,-119.8974609375,-120.5810546875,-120.0439453125,-117.6513671875,-112.7685546875,-109.1552734375,-105.6884765625,-102.0263671875,-99.3408203125,-97.4365234375,-96.1181640625,-98.4619140625,-98.9501953125,-99.3408203125,-100.8056640625,-101.5380859375,-103.3935546875,-104.3212890625,-106.6650390625,-108.2275390625,-108.9111328125,-110.3271484375,-111.2060546875,-113.1103515625,-114.4287109375,-115.0634765625,-116.4306640625,-117.8466796875,-118.9208984375,-119.7021484375,-120.5810546875,-121.3134765625,-120.2880859375,-115.8447265625,-110.4736328125,-107.9833984375,-104.1748046875,-100.9033203125,-98.4619140625,-96.8017578125,-96.5087890625,-98.7548828125,-98.9501953125,-99.9267578125,-101.4404296875,-102.8076171875,-104.8095703125,-106.1279296875,-107.3486328125,-108.8134765625,-110.5224609375,-111.8408203125,-112.9150390625,-113.3544921875,-114.8681640625,-115.9423828125,-117.1630859375,-117.6025390625,-118.9697265625,-119.9951171875,-121.0205078125,-121.6064453125,-120.5322265625,-116.1865234375,-111.8896484375,-108.9599609375,-105.2978515625,-102.8076171875,-100.2685546875,-98.3154296875,-99.7314453125,-100.7080078125,-100.5615234375,-101.2939453125,-102.6123046875,-103.8818359375,-104.9560546875,-106.1767578125,-107.8857421875,-109.0087890625,-110.1318359375,-111.6943359375,-112.6220703125,-114.0380859375,-114.8681640625,-116.1865234375,-116.6748046875,-117.8466796875,-119.2626953125,-120.5322265625,-120.9228515625,-121.1669921875,-117.4072265625,-113.1591796875,-109.6435546875,-106.9580078125,-104.3212890625,-101.6845703125,-99.6337890625,-99.9267578125,-101.3427734375,-102.2705078125,-102.6611328125,-103.1005859375,-105.0048828125,-105.4931640625,-107.3486328125,-108.2275390625,-109.5947265625,-111.1572265625,-112.1337890625,-113.3544921875,-114.2333984375,-115.1123046875,-117.1630859375,-117.5048828125,-118.3837890625,-119.7998046875,-121.1181640625,-122.3876953125,-121.4111328125,-118.7744140625,-113.1591796875,-110.4248046875,-107.1533203125,-103.8330078125,-101.1474609375,-98.9990234375,-98.2666015625,-100.0732421875,-100.4150390625,-100.4150390625,-101.3916015625,-102.6611328125,-104.2236328125,-105.2001953125,-105.8837890625,-107.6416015625,-108.7646484375,-110.4248046875,-111.4990234375,-112.7197265625,-113.8427734375,-114.9658203125,-115.6494140625,-117.3095703125,-118.2861328125,-119.8486328125,-121.1181640625,-121.9970703125,-120.1416015625,-115.0146484375,-111.4501953125,-108.4716796875,-104.9560546875,-101.8798828125,-99.2919921875,-98.2177734375,-98.9501953125,-100.6103515625,-100.6591796875,-101.3427734375,-102.4658203125,-103.4423828125,-104.7119140625,-106.1279296875,-106.9580078125,-108.8134765625,-110.1806640625,-110.7177734375,-111.9384765625,-113.1591796875,-113.9404296875,-115.2099609375,-116.4306640625,-116.8701171875,-118.5791015625,-119.2138671875,-120.5322265625,-119.0673828125,-114.7705078125,-110.7666015625,-107.2509765625,-104.5166015625,-102.0263671875,-99.2919921875,-98.2177734375,-98.9501953125,-100.1220703125,-100.4150390625,-101.9775390625,-102.6611328125,-104.1748046875,-105.7861328125,-107.1533203125,-108.3251953125,-109.7412109375,-110.2783203125,-111.9873046875,-112.8662109375,-114.1845703125,-114.8193359375,-115.2587890625,-116.1865234375,-116.9677734375,-117.9931640625,-118.8720703125,-119.7998046875,-119.2626953125,-115.4541015625,-110.9130859375,-107.0556640625,-104.2724609375,-100.6103515625,-98.0712890625,-95.6298828125,-94.7509765625,-96.0205078125,-96.7529296875,-96.3623046875,-97.8271484375,-98.9990234375,-99.5361328125,-101.5869140625,-102.9541015625,-104.4189453125,-105.9326171875,-106.6162109375,-107.9833984375,-109.1552734375,-110.6201171875,-111.4501953125,-111.8896484375,-112.4755859375,-114.2822265625,-114.8681640625,-115.8447265625,-116.5283203125,-116.1865234375,-111.8896484375,-106.4208984375,-102.6611328125,-99.3408203125,-96.0693359375,-93.4326171875,-90.1611328125,-90.2587890625,-91.5771484375,-92.1142578125,-92.7001953125,-93.5791015625,-95.0439453125,-96.2646484375,-97.7783203125,-99.4873046875,-100.6591796875,-102.3193359375,-103.3447265625,-104.3701171875,-105.9326171875,-107.2998046875,-108.5205078125,-109.6435546875,-111.1572265625,-111.9384765625,-112.7685546875,-114.5263671875,-115.2099609375,-115.5029296875,-111.4990234375,-106.0302734375,-101.9287109375,-98.3642578125,-95.0439453125,-91.7724609375,-89.4287109375,-88.4521484375,-89.8193359375,-90.3564453125,-90.6005859375,-91.6748046875,-92.7978515625,-94.4091796875,-95.5810546875,-96.9970703125,-98.3642578125,-99.8291015625,-100.6591796875,-103.0029296875,-103.6376953125,-104.9560546875,-106.3232421875,-107.1533203125,-108.1787109375,-109.8876953125,-110.8154296875,-111.6943359375,-113.5986328125,-113.3056640625,-109.5458984375,-103.4423828125,-99.1455078125,-96.4111328125,-92.6025390625,-89.9169921875,-88.1103515625,-87.8173828125,-88.6962890625,-89.0380859375,-89.1357421875,-90.8447265625,-92.3583984375,-93.4814453125,-95.0439453125,-96.3134765625,-98.0224609375,-99.3408203125,-100.8544921875,-102.2705078125,-103.5888671875,-104.8095703125,-106.3720703125,-107.1533203125,-108.0810546875,-109.5947265625,-111.1083984375,-111.9384765625,-112.8173828125,-112.1337890625,-107.5927734375,-102.4169921875,-98.3642578125,-94.6533203125,-91.2841796875,-87.7685546875,-85.3759765625,-84.2041015625,-86.4013671875,-87.1337890625,-86.9384765625,-88.7451171875,-90.2587890625,-91.8701171875,-93.3837890625,-95.9228515625,-97.7783203125,-99.7802734375,-101.7333984375,-103.4912109375,-104.6630859375,-106.0791015625,-106.8115234375,-108.5693359375,-109.9365234375,-111.5966796875,-112.1826171875,-113.4521484375,-113.9892578125,-114.6240234375,-110.8642578125,-104.9072265625,-100.2197265625,-96.7041015625,-92.8955078125,-89.8193359375,-87.2802734375,-86.3037109375,-88.0126953125,-88.9404296875,-89.0380859375,-89.2822265625,-91.0400390625,-91.8212890625,-94.1650390625,-95.2880859375,-96.7529296875,-98.7060546875,-99.6337890625,-101.4892578125,-102.6123046875,-103.9794921875,-105.6396484375,-106.8115234375,-107.8369140625,-109.3017578125,-110.2294921875,-111.5966796875,-112.5244140625,-113.4521484375,-110.7177734375,-105.0537109375,-100.8056640625,-97.2412109375,-94.0185546875,-90.5517578125,-88.0615234375,-87.4267578125,-88.8427734375,-89.5751953125,-90.0634765625,-90.6005859375,-91.7724609375,-94.1162109375,-95.8740234375,-97.5830078125,-98.8525390625,-100.3662109375,-102.0263671875,-103.1005859375,-104.4189453125,-106.0302734375,-107.6904296875,-108.9111328125,-109.8876953125,-111.1083984375,-112.2802734375,-113.7451171875,-114.0869140625,-115.1611328125,-112.9638671875,-107.2021484375,-102.6611328125,-99.0478515625,-94.7021484375,-91.6748046875,-88.3544921875,-86.8896484375,-87.6220703125,-88.4521484375,-88.7451171875,-89.4775390625,-90.6982421875,-92.5048828125,-93.8232421875,-95.9228515625,-97.7294921875,-99.4873046875,-101.4404296875,-102.9052734375,-104.5654296875,-106.3720703125,-107.9833984375,-109.0087890625,-110.5224609375,-111.7431640625,-113.6474609375,-114.2333984375,-115.9423828125,-116.5283203125,-115.6494140625,-110.4248046875,-105.2978515625,-101.8310546875,-97.9248046875,-94.3603515625,-91.9189453125,-89.0869140625,-89.5263671875,-91.0888671875,-91.5771484375,-91.9677734375,-93.1884765625,-94.6533203125,-96.0205078125,-97.6806640625,-98.7060546875,-100.3173828125,-101.4404296875,-102.9541015625,-104.2236328125,-105.2978515625,-106.5673828125,-107.4462890625,-108.4716796875,-109.7412109375,-110.9130859375,-112.2314453125,-113.0615234375,-114.0869140625,-113.6474609375,-108.6181640625,-103.4912109375,-100.2685546875,-96.7529296875,-93.1396484375,-90.9912109375,-88.6962890625,-88.9404296875,-90.1123046875,-90.5517578125,-91.3330078125,-91.7236328125,-94.0185546875,-96.1181640625,-97.5830078125,-99.4384765625,-101.0009765625,-102.5634765625,-103.9306640625,-105.3955078125,-106.6162109375,-107.8369140625,-108.9599609375,-109.4482421875,-110.9619140625,-112.6708984375,-113.4033203125,-115.0146484375,-115.2587890625,-114.2822265625,-109.1064453125,-104.1259765625,-99.7802734375,-95.8740234375,-92.7001953125,-89.9658203125,-87.5732421875,-87.6220703125,-88.7451171875,-89.8681640625,-89.8681640625,-91.0400390625,-92.4560546875,-93.9208984375,-95.8740234375,-97.1923828125,-99.5361328125,-100.5126953125,-101.1962890625,-103.1005859375,-104.4189453125,-105.7373046875,-106.7626953125,-107.4462890625,-109.3994140625,-109.9853515625,-111.2060546875,-112.8173828125,-114.1845703125,-112.7685546875,-108.4716796875,-103.0517578125,-100.0244140625,-96.4111328125,-92.0654296875,-89.8681640625,-88.0615234375,-87.5244140625,-89.1357421875,-88.9892578125,-89.9658203125,-90.5517578125,-92.3583984375,-93.7255859375,-95.2880859375,-97.1923828125,-98.8525390625,-99.5849609375,-101.5380859375,-102.9052734375,-104.1748046875,-105.6396484375,-106.6162109375,-107.8857421875,-108.6669921875,-109.4970703125,-111.3037109375,-111.7919921875,-112.7197265625,-112.7197265625,-107.4462890625,-102.2216796875,-99.1455078125,-95.0439453125,-92.4560546875,-89.0869140625,-86.5478515625,-87.2802734375,-88.5498046875,-88.8427734375,-88.9404296875,-90.0634765625,-91.5771484375,-93.0419921875,-94.5068359375,-96.4599609375,-97.3388671875,-99.4384765625,-100.9521484375,-101.0986328125,-103.0517578125,-104.5166015625,-105.0537109375,-107.2021484375,-108.1787109375,-109.7412109375,-110.3759765625,-111.4990234375,-111.8408203125,-109.3505859375,-103.3447265625,-99.8779296875,-95.9228515625,-92.0166015625,-89.6240234375,-86.8408203125,-84.9853515625,-86.8896484375,-87.7197265625,-88.3056640625,-88.9892578125,-90.0634765625,-91.4794921875,-93.7255859375,-95.1416015625,-96.2158203125,-97.8271484375,-99.4873046875,-100.6103515625,-102.0751953125,-103.0517578125,-104.6142578125,-105.7861328125,-107.2021484375,-108.7158203125,-110.2783203125,-110.8154296875,-111.4990234375,-112.0849609375,-107.9345703125,-102.5634765625,-98.6083984375,-94.9462890625,-91.0888671875,-87.6220703125,-84.8876953125,-84.3017578125,-86.0595703125,-87.2802734375,-87.3291015625,-88.9404296875,-89.8193359375,-91.8212890625,-93.1396484375,-94.4580078125,-96.3134765625,-97.9736328125,-99.6337890625,-100.5615234375,-101.7333984375,-103.1005859375,-104.0283203125,-105.0537109375,-105.8837890625,-106.7138671875,-107.8857421875,-109.1064453125,-110.2783203125,-109.8876953125,-105.8349609375,-100.4638671875,-96.2158203125,-92.3583984375,-88.9404296875,-85.3759765625,-82.8857421875,-81.6162109375,-83.0810546875,-83.3251953125,-83.3740234375,-84.6923828125,-85.6201171875,-86.6455078125,-88.6474609375,-89.7216796875,-91.0400390625,-92.5537109375,-94.0185546875,-95.3857421875,-96.0205078125,-96.8505859375,-98.6572265625,-99.3408203125,-100.8056640625,-101.8798828125,-103.6865234375,-104.1259765625,-105.8837890625,-105.1513671875,-100.8056640625,-95.9228515625,-91.8212890625,-88.7451171875,-85.6689453125,-82.7392578125,-80.6884765625,-80.9814453125,-82.4462890625,-82.7392578125,-83.7158203125,-84.3505859375,-85.7666015625,-87.4755859375,-89.6728515625,-91.1376953125,-92.8955078125,-94.7021484375,-96.5087890625,-97.4853515625,-98.7060546875,-99.6826171875,-101.3427734375,-102.0751953125,-103.0517578125,-104.4677734375,-105.7373046875,-107.1044921875,-107.4462890625,-105.7861328125,-100.2197265625,-95.1904296875,-92.1630859375,-87.8662109375,-84.1552734375,-81.6162109375,-79.2724609375,-80.1513671875,-81.1767578125,-81.6162109375,-81.9580078125,-83.2763671875,-84.9365234375,-86.4990234375,-88.2080078125,-89.9169921875,-91.8212890625,-93.8232421875,-95.4345703125,-96.8017578125,-97.8759765625,-99.5849609375,-100.8056640625,-102.1240234375,-103.7353515625,-104.7119140625,-105.9326171875,-106.9091796875,-107.5927734375,-105.1025390625,-99.6826171875,-94.7998046875,-90.6005859375,-87.2314453125,-83.4228515625,-80.7373046875,-79.0771484375,-79.3701171875,-80.5419921875,-80.8837890625,-82.0556640625,-83.5205078125,-85.4248046875,-86.4501953125,-88.5986328125,-89.9658203125,-91.3818359375,-92.9443359375,-94.3603515625,-95.1416015625,-96.6064453125,-97.9248046875,-98.5107421875,-99.4384765625,-100.8056640625,-102.4658203125,-103.2958984375,-103.9794921875,-104.9560546875,-103.2958984375,-98.3154296875,-93.5302734375,-88.9404296875,-85.1806640625,-81.4697265625,-78.1982421875,-76.4404296875,-76.3427734375,-78.0517578125,-78.3447265625,-78.4912109375,-80.2490234375,-81.7138671875,-82.9345703125,-84.8876953125,-86.3037109375,-87.6708984375,-89.6240234375,-91.0888671875,-92.8466796875,-94.2626953125,-95.5810546875,-96.8994140625,-98.6083984375,-99.8291015625,-101.1962890625,-102.4169921875,-104.3212890625,-104.9560546875,-105.0537109375,-100.5615234375,-95.0439453125,-90.8935546875,-87.0361328125,-83.3251953125,-79.7119140625,-76.7822265625,-75.3662109375,-76.3916015625,-77.6123046875,-77.1728515625,-78.4423828125,-79.7119140625,-81.1279296875,-82.7392578125,-84.7412109375,-85.6201171875,-87.7197265625,-89.4287109375,-91.6748046875,-92.5537109375,-94.2138671875,-95.5810546875,-96.4111328125,-98.5107421875,-98.9501953125,-99.7802734375,-101.6357421875,-102.7587890625,-103.1005859375,-102.5146484375,-97.6318359375,-92.5048828125,-87.9638671875,-84.3994140625,-80.3466796875,-77.4169921875,-75.0244140625,-74.2919921875,-75.6591796875,-76.5380859375,-76.4404296875,-77.8076171875,-79.7607421875,-81.3720703125,-83.2763671875,-85.3271484375,-86.6943359375,-88.8427734375,-90.1123046875,-91.3818359375,-92.7978515625,-94.6533203125,-95.5322265625,-96.5087890625,-98.4619140625,-99.2919921875,-101.2451171875,-102.5146484375,-103.5400390625,-104.3701171875,-102.1728515625,-97.0947265625,-92.3583984375,-88.3056640625,-85.4248046875,-80.6396484375,-77.9541015625,-75.7080078125,-76.4892578125,-77.9541015625,-77.4658203125,-78.1005859375,-79.3701171875,-80.2490234375,-81.7138671875,-83.5205078125,-84.7412109375,-86.3037109375,-87.7685546875,-88.8916015625,-91.0400390625,-92.0166015625,-93.3837890625,-95.4345703125,-96.0693359375,-97.2900390625,-98.5595703125,-100.1220703125,-101.9287109375,-102.8564453125,-102.7587890625,-97.3388671875,-92.3583984375,-87.8173828125,-84.3994140625,-81.7138671875,-77.7587890625,-76.0986328125,-75.8056640625,-76.7822265625,-77.9052734375,-77.9541015625,-78.5888671875,-81.1279296875,-81.6162109375,-84.3505859375,-85.2294921875,-86.8896484375,-89.0380859375,-89.9169921875,-92.2119140625,-93.7744140625,-94.6044921875,-95.8251953125,-97.0947265625,-98.5595703125,-99.8779296875,-100.9521484375,-102.3681640625,-102.8564453125,-102.5634765625,-97.7783203125,-92.5537109375,-88.7939453125,-84.8876953125,-80.6396484375,-76.8310546875,-74.4384765625,-74.2431640625,-75.5126953125,-75.6591796875,-76.3427734375,-77.5634765625,-79.1748046875,-81.1767578125,-82.8369140625,-85.1318359375,-87.2802734375,-88.7451171875,-90.9912109375,-93.0908203125,-94.5068359375,-95.9716796875,-97.0458984375,-99.2919921875,-100.2685546875,-100.8056640625,-103.2958984375,-104.4677734375,-105.0048828125,-105.0048828125,-101.4892578125,-96.3134765625,-92.3583984375,-88.4033203125,-85.0830078125,-82.2021484375,-80.2001953125,-78.7841796875,-79.8583984375,-80.9326171875,-81.6650390625,-82.7880859375,-83.9111328125,-85.2783203125,-86.5966796875,-88.3056640625,-89.6728515625,-91.8212890625,-92.2119140625,-93.7744140625,-95.6787109375,-96.6552734375,-97.8271484375,-99.0478515625,-99.6826171875,-101.5869140625,-102.9052734375,-104.7607421875,-105.4931640625,-103.2470703125,-98.2666015625,-94.8486328125,-90.9423828125,-87.4267578125,-84.1064453125,-82.1533203125,-81.0791015625,-82.3974609375,-83.2275390625,-83.3740234375,-84.3994140625,-85.4736328125,-86.7919921875,-88.9892578125,-90.2099609375,-91.9677734375,-94.3115234375,-95.2392578125,-96.4599609375,-97.7783203125,-99.4873046875,-100.6591796875,-102.0263671875,-103.4912109375,-104.7607421875,-106.6162109375,-107.2509765625,-108.2763671875,-107.8857421875,-103.7353515625,-98.2177734375,-93.7744140625,-91.1376953125,-87.3779296875,-84.6923828125,-81.5185546875,-81.5673828125,-83.4716796875,-84.0087890625,-84.2041015625,-85.7666015625,-87.1337890625,-88.4033203125,-90.0146484375,-91.3818359375,-92.7978515625,-94.2138671875,-95.5322265625,-96.6064453125,-97.8271484375,-98.7548828125,-100.5615234375,-101.5869140625,-102.7587890625,-103.8818359375,-105.4931640625,-106.9091796875,-108.0810546875,-105.8837890625,-101.1474609375,-96.8017578125,-93.6279296875,-89.4775390625,-86.6943359375,-83.6669921875,-81.8115234375,-82.6416015625,-83.5205078125,-84.3505859375,-84.7412109375,-86.2548828125,-87.6708984375,-89.3310546875,-90.4541015625,-92.1630859375,-93.6767578125,-94.4580078125,-96.8017578125,-97.5341796875,-98.7548828125,-100.1708984375,-100.6591796875,-102.0263671875,-103.4912109375,-104.1748046875,-105.6884765625,-106.0791015625,-106.4208984375,-103.5888671875,-98.5107421875,-94.2626953125,-90.7470703125,-87.5244140625,-84.3017578125,-81.6162109375,-81.3232421875,-82.2998046875,-83.4228515625,-83.3251953125,-84.5947265625,-85.2294921875,-86.9384765625,-88.5009765625,-89.7216796875,-91.3330078125,-92.8466796875,-94.3603515625,-95.6298828125,-96.5087890625,-97.9248046875,-99.0478515625,-99.9755859375,-100.7568359375,-102.4658203125,-103.7841796875,-105.1025390625,-105.4931640625,-105.2490234375,-101.5869140625,-96.6552734375,-92.6513671875,-89.6240234375,-85.7177734375,-82.9345703125,-80.5419921875,-80.3955078125,-82.2998046875,-82.7392578125,-83.2275390625,-84.4482421875,-85.4248046875,-87.0849609375,-88.8916015625,-90.2587890625,-91.7724609375,-93.1396484375,-95.0439453125,-96.0693359375,-97.0458984375,-98.2177734375,-99.4384765625,-100.0732421875,-101.1962890625,-101.8798828125,-103.1494140625,-104.3212890625,-105.3466796875,-105.4931640625,-102.5146484375,-96.3134765625,-92.5048828125,-89.0380859375,-85.4248046875,-81.8603515625,-79.4189453125,-77.8076171875,-79.4677734375,-80.2001953125,-80.0537109375,-81.1279296875,-83.1298828125,-84.2041015625,-86.0107421875,-87.5732421875,-88.8916015625,-90.3564453125,-92.3095703125,-93.8232421875,-94.3603515625,-96.4599609375,-97.6318359375,-98.9501953125,-100.0732421875,-100.8544921875,-102.3681640625,-103.0029296875,-103.3935546875,-104.3701171875,-101.8310546875,-96.6064453125,-91.9189453125,-88.2080078125,-84.5947265625,-81.4208984375,-78.2958984375,-76.6845703125,-78.3935546875,-78.8818359375,-79.0283203125,-79.5166015625,-81.0302734375,-81.9580078125,-82.9345703125,-84.4970703125,-85.2294921875,-86.4990234375,-87.7685546875,-88.4521484375,-90.0634765625,-91.0400390625,-91.3330078125,-92.7978515625,-94.2138671875,-95.2392578125,-96.2646484375,-97.8759765625,-98.8037109375,-98.9990234375,-96.2646484375,-91.3818359375,-87.3779296875,-83.9111328125,-80.2490234375,-77.5146484375,-74.9267578125,-73.6083984375,-75.3173828125,-75.4638671875,-76.2939453125,-77.0751953125,-78.0029296875,-80.1513671875,-81.9091796875,-82.6904296875,-83.9111328125,-84.9365234375,-86.7919921875,-87.1826171875,-88.5986328125,-90.4052734375,-90.5517578125,-91.5283203125,-92.3095703125,-93.6767578125,-94.7998046875,-95.8251953125,-96.8994140625,-96.5576171875,-92.6513671875,-86.4501953125,-82.9345703125,-78.2958984375,-74.6337890625,-71.1181640625,-66.7724609375,-66.6748046875,-67.0654296875,-67.0166015625,-67.5048828125,-68.2373046875,-69.4580078125,-70.9228515625,-72.8271484375,-74.4384765625,-76.1474609375,-77.1728515625,-79.0771484375,-81.1767578125,-82.7880859375,-84.2529296875,-85.4736328125,-86.9384765625,-88.5498046875,-89.5751953125,-91.6259765625,-92.6025390625,-93.7744140625,-93.7744140625,-89.1357421875,-83.4716796875,-78.7841796875,-74.8779296875,-71.5576171875,-67.6025390625,-64.9169921875,-64.0380859375,-65.1611328125,-65.9423828125,-65.2587890625,-66.4794921875,-67.3095703125,-69.4091796875,-70.1904296875,-71.8505859375,-74.0478515625,-75.7568359375,-77.1728515625,-78.6865234375,-80.2001953125,-81.5673828125,-82.5439453125,-83.8134765625,-85.5224609375,-87.3291015625,-88.5498046875,-89.6728515625,-90.3076171875,-90.5517578125,-86.2060546875,-80.6884765625,-76.0498046875,-72.5830078125,-68.4326171875,-65.0634765625,-62.8173828125,-62.1826171875,-63.7939453125,-63.9404296875,-63.5498046875,-64.6728515625,-66.2841796875,-67.4072265625,-69.4091796875,-71.0693359375,-72.8271484375,-74.5361328125,-76.5380859375,-77.6611328125,-79.3212890625,-80.7861328125,-82.6416015625,-84.2041015625,-85.5712890625,-87.0849609375,-88.1103515625,-89.9658203125,-91.7236328125,-91.6748046875,-90.7470703125,-84.8876953125,-79.4189453125,-75.3662109375,-71.9482421875,-68.2861328125,-64.6728515625,-62.6220703125,-63.0615234375,-64.1845703125,-65.1123046875,-65.8935546875,-66.6748046875,-69.0185546875,-70.8740234375,-72.2900390625,-74.0966796875,-76.3916015625,-77.8564453125,-79.2724609375,-81.2744140625,-82.5927734375,-83.8134765625,-85.5712890625,-86.2548828125,-87.5732421875,-89.8193359375,-90.5029296875,-92.0166015625,-93.5302734375,-94.4091796875,-94.5556640625,-89.9658203125,-84.7412109375,-79.9072265625,-76.4892578125,-72.2412109375,-68.5302734375,-66.1376953125,-64.8193359375,-66.0888671875,-67.1142578125,-67.3095703125,-68.5302734375,-70.1904296875,-71.9970703125,-73.5595703125,-74.7802734375,-76.5380859375,-78.3447265625,-79.8095703125,-81.4208984375,-83.2763671875,-84.0087890625,-85.0830078125,-85.8154296875,-87.5732421875,-88.2568359375,-89.5751953125,-91.0400390625,-91.7236328125,-93.3837890625,-94.2138671875,-93.6767578125,-88.5986328125,-83.2763671875,-78.4912109375,-74.8779296875,-70.1416015625,-67.1630859375,-64.4775390625,-63.1591796875,-64.3310546875,-64.4775390625,-64.2822265625,-65.0634765625,-66.2841796875,-67.7978515625,-68.8720703125,-70.9716796875,-72.4365234375,-73.6083984375,-75.9521484375,-76.9287109375,-78.5400390625,-80.2490234375,-81.9091796875,-82.7880859375,-84.7412109375,-85.9130859375,-86.9384765625,-89.4287109375,-90.3564453125,-91.2841796875,-92.0654296875,-89.6728515625,-84.2041015625,-79.1748046875,-75.3662109375,-71.7529296875,-67.5048828125,-65.3076171875,-62.9150390625,-63.4521484375,-65.2587890625,-65.2099609375,-66.1865234375,-67.4560546875,-69.0673828125,-71.2646484375,-73.3642578125,-75.1220703125,-77.5634765625,-78.4912109375,-80.3466796875,-81.5673828125,-83.2763671875,-84.6435546875,-86.2060546875,-87.5732421875,-88.9404296875,-89.9658203125,-92.0654296875,-92.9931640625,-94.7509765625,-95.3369140625,-94.9462890625,-89.6728515625,-84.4970703125,-80.1025390625,-76.3916015625,-72.9736328125,-69.1650390625,-67.5048828125,-66.7724609375,-68.4814453125,-69.7509765625,-69.9462890625,-71.3134765625,-73.1689453125,-74.8779296875,-76.1962890625,-78.3935546875,-80.2978515625,-81.3720703125,-83.1298828125,-84.8876953125,-86.3525390625,-87.4755859375,-88.3544921875,-90.2587890625,-91.4306640625,-92.5537109375,-94.2626953125,-95.3369140625,-97.0458984375,-97.3388671875,-97.8759765625,-95.7275390625,-89.6728515625,-85.8154296875,-81.9091796875,-78.1494140625,-74.6826171875,-71.9482421875,-70.6787109375,-71.3134765625,-72.1435546875,-71.5087890625,-72.2412109375,-74.0966796875,-74.8779296875,-75.9033203125,-77.8564453125,-79.2236328125,-80.9814453125,-82.3486328125,-83.6181640625,-84.5458984375,-85.8154296875,-87.3779296875,-88.8427734375,-90.2099609375,-91.3330078125,-93.0419921875,-94.2626953125,-95.7763671875,-96.5576171875,-96.7529296875,-93.1884765625,-87.8173828125,-84.0576171875,-79.9560546875,-76.9287109375,-73.5595703125,-71.5576171875,-70.8251953125,-72.2412109375,-73.0224609375,-73.5595703125,-74.5849609375,-76.1474609375,-77.7099609375,-79.6142578125,-80.8349609375,-82.6416015625,-84.2041015625,-85.3759765625,-86.8896484375,-87.6220703125,-89.0380859375,-90.2587890625,-91.8212890625,-92.6025390625,-93.4326171875,-95.2392578125,-96.3134765625,-97.0947265625,-97.4853515625,-95.0439453125,-89.2822265625,-84.9365234375,-80.9814453125,-78.3447265625,-74.8779296875,-71.8994140625,-70.6787109375,-71.0205078125,-72.1923828125,-73.0224609375,-73.9990234375,-75.7568359375,-76.9287109375,-79.0283203125,-81.1279296875,-82.4951171875,-84.7900390625,-86.2060546875,-87.4267578125,-88.4521484375,-89.5751953125,-91.0400390625,-92.2119140625,-92.9931640625,-93.6279296875,-94.8486328125,-96.0693359375,-97.1923828125,-97.5341796875,-97.4853515625,-93.3837890625,-88.0615234375,-84.1064453125,-80.6396484375,-77.0263671875,-73.7060546875,-71.4599609375,-71.7041015625,-72.6806640625,-73.1201171875,-73.6572265625,-74.8291015625,-75.9033203125,-76.8310546875,-78.5400390625,-80.2978515625,-81.3232421875,-82.6416015625,-83.7158203125,-84.9853515625,-86.2060546875,-87.3291015625,-88.7451171875,-89.2822265625,-90.5517578125,-91.9677734375,-93.0419921875,-94.3603515625,-95.0927734375,-95.0927734375,-90.5517578125,-85.6201171875,-81.1767578125,-77.9541015625,-74.7802734375,-71.4111328125,-69.7021484375,-69.6533203125,-70.7275390625,-71.0205078125,-71.6552734375,-72.4365234375,-73.9501953125,-74.8779296875,-76.6845703125,-78.2470703125,-79.8583984375,-81.0791015625,-83.2275390625,-84.4482421875,-85.2294921875,-86.7431640625,-87.9638671875,-88.9404296875,-90.4052734375,-91.6259765625,-91.6748046875,-93.7744140625,-93.6767578125,-93.4326171875,-88.0615234375,-82.4951171875,-78.4423828125,-74.9267578125,-72.0947265625,-68.1884765625,-65.5029296875,-64.5263671875,-65.9912109375,-66.2353515625,-65.5029296875,-66.6748046875,-67.8955078125,-70.2392578125,-70.9716796875,-72.7294921875,-74.0478515625,-75.4638671875,-77.2216796875,-79.2724609375,-80.5908203125,-82.4951171875,-83.7158203125,-85.4248046875,-86.8896484375,-88.2568359375,-90.2099609375,-91.3330078125,-92.6025390625,-92.7978515625,-89.7705078125,-84.3505859375,-79.9560546875,-75.8544921875,-72.3876953125,-68.7255859375,-65.6982421875,-63.3056640625,-65.3564453125,-66.3818359375,-66.4306640625,-66.9189453125,-67.8955078125,-69.2626953125,-70.8740234375,-72.6318359375,-73.9013671875,-75.4150390625,-77.0263671875,-78.1005859375,-79.7119140625,-80.5419921875,-81.9580078125,-82.6904296875,-83.8623046875,-85.0341796875,-86.5966796875,-87.6708984375,-88.8916015625,-89.6728515625,-89.9169921875,-84.7900390625,-79.9560546875,-74.7802734375,-72.2412109375,-67.7978515625,-64.9169921875,-62.3779296875,-62.3779296875,-63.1103515625,-64.0380859375,-64.6728515625,-65.2587890625,-66.7236328125,-68.0419921875,-69.3603515625,-71.3623046875,-72.7783203125,-74.5849609375,-76.1474609375,-77.5146484375,-79.0771484375,-80.7373046875,-82.3974609375,-83.4228515625,-84.9365234375,-85.6689453125,-86.7431640625,-88.1103515625,-89.5263671875,-90.5029296875,-89.3310546875,-84.4482421875,-78.8818359375,-74.6337890625,-71.3623046875,-67.1630859375,-63.5986328125,-61.3525390625,-60.8642578125,-61.8896484375,-62.3779296875,-62.6220703125,-64.3798828125,-65.6982421875,-67.4072265625,-68.7744140625,-70.5322265625,-72.0458984375,-74.0966796875,-75.5126953125,-76.8798828125,-78.3935546875,-78.8818359375,-80.2978515625,-82.3486328125,-83.4716796875,-84.8876953125,-86.5478515625,-87.4755859375,-88.8427734375,-89.3798828125,-88.9404296875,-84.7412109375,-78.9794921875,-74.8291015625,-71.4111328125,-67.6025390625,-64.9658203125,-62.5244140625,-61.3037109375,-63.1103515625,-64.0380859375,-64.2333984375,-65.7958984375,-66.5771484375,-68.1884765625,-70.0927734375,-71.8017578125,-73.8525390625,-74.9755859375,-76.9775390625,-78.2470703125,-79.3212890625,-80.8837890625,-81.9580078125,-83.1787109375,-84.1552734375,-85.5712890625,-86.9384765625,-88.2080078125,-89.1357421875,-90.0634765625,-88.5986328125,-83.8623046875,-78.9306640625,-74.4873046875,-70.8251953125,-67.5537109375,-64.4287109375,-62.1337890625,-63.2568359375,-64.5751953125,-63.9404296875,-64.4287109375,-65.6494140625,-67.0654296875,-68.6279296875,-69.8486328125,-71.5576171875,-72.8271484375,-74.1943359375,-75.7568359375,-77.7099609375,-79.4189453125,-80.3466796875,-81.2744140625,-83.1787109375,-84.4482421875,-85.9619140625,-87.1826171875,-88.5498046875,-89.3798828125,-89.0380859375,-84.2041015625,-79.4189453125,-74.7314453125,-71.0693359375,-67.7978515625,-64.2822265625,-61.3037109375,-60.8154296875,-62.0849609375,-62.1337890625,-62.7685546875,-63.5986328125,-64.7216796875,-66.3818359375,-67.7490234375,-69.1650390625,-70.9716796875,-72.8271484375,-74.3408203125,-76.0009765625,-77.2705078125,-78.5400390625,-79.5654296875,-81.1279296875,-82.3974609375,-83.9111328125,-84.9853515625,-86.7431640625,-87.3779296875,-87.0849609375,-82.6416015625,-77.7099609375,-72.2412109375,-69.1162109375,-65.8935546875,-62.6708984375,-59.6923828125,-59.3994140625,-61.7919921875,-62.3291015625,-63.0126953125,-64.0380859375,-65.9912109375,-68.1396484375,-70.2392578125,-71.9482421875,-73.7548828125,-76.0498046875,-77.5634765625,-78.8330078125,-80.3466796875,-82.0068359375,-83.7646484375,-84.6435546875,-85.9619140625,-87.4755859375,-89.0380859375,-90.4541015625,-90.8447265625,-91.6259765625,-87.0849609375,-81.8603515625,-77.3681640625,-73.6572265625,-70.7275390625,-66.8701171875,-64.5263671875,-63.8916015625,-65.3564453125,-66.0400390625,-66.2353515625,-67.5537109375,-68.5302734375,-70.1904296875,-71.4111328125,-73.1201171875,-75.3173828125,-76.1962890625,-77.9052734375,-79.1748046875,-80.5419921875,-81.1279296875,-81.6650390625,-83.2763671875,-84.2041015625,-86.0595703125,-86.8896484375,-88.4033203125,-88.4521484375,-87.0361328125,-81.7138671875,-77.0751953125,-73.5107421875,-70.5322265625,-66.7236328125,-65.3076171875,-63.5498046875,-64.6728515625,-65.8447265625,-66.3330078125,-66.9189453125,-68.6767578125,-70.6787109375,-71.7041015625,-73.7548828125,-75.9521484375,-77.1728515625,-78.4912109375,-79.7119140625,-81.8115234375,-82.8369140625,-84.3017578125,-84.6923828125,-86.4501953125,-87.5244140625,-88.6474609375,-89.9169921875,-90.5517578125,-90.4541015625,-85.4248046875,-79.9560546875,-75.9033203125,-71.8994140625,-68.7255859375,-65.0634765625,-62.9150390625,-62.7197265625,-63.7939453125,-64.3798828125,-64.7705078125,-65.6005859375,-67.0166015625,-68.9208984375,-70.8251953125,-71.8994140625,-73.8525390625,-75.9521484375,-77.4658203125,-78.8330078125,-79.9560546875,-81.7138671875,-82.5439453125,-84.0087890625,-85.1806640625,-86.5478515625,-88.1591796875,-89.1845703125,-90.4052734375,-88.7451171875,-83.9111328125,-78.6376953125,-75.2685546875,-70.5810546875,-67.8955078125,-64.6728515625,-62.8173828125,-62.8173828125,-64.8681640625,-64.7705078125,-65.4052734375,-66.2841796875,-68.1884765625,-69.4091796875,-70.6298828125,-72.4853515625,-73.7060546875,-74.8291015625,-75.8056640625,-77.4658203125,-78.5400390625,-79.5166015625,-80.5908203125,-81.8603515625,-83.1298828125,-84.1064453125,-85.1806640625,-85.9130859375,-86.3525390625,-84.1064453125,-77.7587890625,-73.5107421875,-70.1416015625,-67.0166015625,-63.7939453125,-61.9873046875,-60.7177734375,-61.6455078125,-63.3056640625,-63.7451171875,-64.1845703125,-66.2841796875,-67.3583984375,-68.9697265625,-71.0693359375,-72.0947265625,-74.0966796875,-75.2685546875,-77.0263671875,-77.6611328125,-79.1259765625,-80.7861328125,-81.4208984375,-82.4951171875,-83.9599609375,-85.2294921875,-85.7666015625,-87.1826171875,-85.7177734375,-80.3955078125,-74.8779296875,-70.6787109375,-67.2119140625,-63.6474609375,-60.3271484375,-57.7880859375,-58.0322265625,-58.8134765625,-59.0087890625,-60.1318359375,-61.1083984375,-61.6943359375,-64.4287109375,-66.0888671875,-67.0654296875,-69.2138671875,-70.1904296875,-72.3388671875,-73.2177734375,-74.1455078125,-76.0009765625,-77.3681640625,-77.8076171875,-79.9072265625,-81.4697265625,-82.7880859375,-84.6923828125,-84.7900390625,-80.2490234375,-74.6826171875,-71.3623046875,-66.9189453125,-63.5986328125,-60.5712890625,-58.0322265625,-57.1044921875,-58.7158203125,-59.7412109375,-59.9365234375,-61.2060546875,-62.0849609375,-64.3798828125,-65.8447265625,-67.6025390625,-68.9697265625,-70.7275390625,-72.4853515625,-74.0966796875,-75.3662109375,-76.1474609375,-78.0029296875,-78.8330078125,-80.1025390625,-81.8603515625,-83.3251953125,-84.2529296875,-84.7900390625,-83.0810546875,-76.9775390625,-71.9970703125,-67.8955078125,-64.8193359375,-61.7431640625,-58.8134765625,-56.9580078125,-57.8857421875,-58.6669921875,-59.0576171875,-59.4970703125,-61.3037109375,-62.5732421875,-63.7451171875,-65.4541015625,-66.9677734375,-68.5791015625,-70.7275390625,-71.4599609375,-73.2666015625,-74.4873046875,-75.9033203125,-77.3193359375,-78.7353515625,-80.2001953125,-81.3720703125,-82.4462890625,-83.5205078125,-82.2021484375,-76.9287109375,-71.3623046875,-67.1630859375,-63.9404296875,-60.2294921875,-57.0068359375,-55.1513671875,-54.9072265625,-56.1767578125,-55.8837890625,-56.8603515625,-58.0810546875,-59.2529296875,-61.1572265625,-61.8896484375,-64.4287109375,-66.0888671875,-68.3349609375,-69.5068359375,-70.7763671875,-72.1923828125,-74.0966796875,-75.3173828125,-76.5869140625,-77.7587890625,-79.6142578125,-81.0302734375,-82.2998046875,-82.1533203125,-78.6376953125,-73.0224609375,-68.1396484375,-64.6728515625,-61.2060546875,-58.2275390625,-55.4931640625,-54.2724609375,-56.1279296875,-57.5927734375,-58.5205078125,-60.0830078125,-61.3037109375,-63.2080078125,-65.2587890625,-67.6025390625,-69.4091796875,-71.5087890625,-72.6806640625,-74.2919921875,-75.4638671875,-76.9775390625,-78.3447265625,-79.7119140625,-81.0791015625,-82.8369140625,-84.3017578125,-84.9853515625,-86.4990234375,-86.9384765625,-85.8154296875,-80.7861328125,-76.0986328125,-71.8505859375,-67.8955078125,-64.6728515625,-61.3525390625,-59.3017578125,-59.2041015625,-60.4736328125,-60.7666015625,-60.9619140625,-61.8896484375,-62.9638671875,-65.2099609375,-66.5771484375,-67.7978515625,-69.6044921875,-70.8251953125,-72.1923828125,-73.5107421875,-75.1708984375,-76.2939453125,-77.5634765625,-78.6376953125,-79.9072265625,-81.3232421875,-82.6416015625,-84.6923828125,-84.9365234375,-84.6923828125,-80.2978515625,-75.3173828125,-71.6552734375,-68.1396484375,-65.0146484375,-62.6708984375,-60.7666015625,-61.2060546875,-63.1591796875,-63.1591796875,-63.3056640625,-65.0146484375,-66.0400390625,-67.9443359375,-69.3603515625,-70.9228515625,-72.4853515625,-74.2919921875,-75.5126953125,-76.2939453125,-78.1494140625,-79.1259765625,-80.3466796875,-81.4208984375,-82.3486328125,-83.1298828125,-84.4482421875,-85.6201171875,-86.5966796875,-85.8642578125,-82.0556640625,-76.5869140625,-72.4365234375,-68.1884765625,-64.7705078125,-61.9873046875,-59.9853515625,-58.8623046875,-60.2783203125,-60.4248046875,-61.5966796875,-63.0126953125,-63.8916015625,-65.0634765625,-66.8701171875,-68.9697265625,-71.2646484375,-72.1923828125,-74.1455078125,-76.0498046875,-77.0263671875,-78.7353515625,-80.2978515625,-80.9326171875,-81.9580078125,-83.4716796875,-84.8876953125,-86.1572265625,-87.1337890625,-87.1826171875,-82.6904296875,-77.1240234375,-73.2666015625,-69.4091796875,-65.8447265625,-62.5732421875,-60.6201171875,-59.9853515625,-61.3525390625,-61.5966796875,-61.9873046875,-63.0126953125,-64.3798828125,-65.6982421875,-66.8212890625,-68.4326171875,-70.1904296875,-71.5087890625,-72.4365234375,-73.8037109375,-74.9267578125,-75.7080078125,-77.2705078125,-78.0029296875,-79.1259765625,-80.3466796875,-81.0791015625,-82.7392578125,-81.9580078125,-78.0517578125,-73.4619140625,-69.0673828125,-65.4052734375,-62.9638671875,-59.6435546875,-57.6904296875,-57.7392578125,-58.4228515625,-59.7412109375,-60.1806640625,-61.1083984375,-62.9638671875,-64.5263671875,-66.2841796875,-67.5048828125,-68.7255859375,-70.9228515625,-71.5576171875,-73.3154296875,-74.9755859375,-75.2685546875,-77.2216796875,-77.6611328125,-78.9794921875,-80.5908203125,-81.8603515625,-82.5439453125,-83.1298828125,-79.1259765625,-74.6337890625,-70.1416015625,-66.4306640625,-62.4267578125,-59.3994140625,-56.0791015625,-54.3701171875,-55.4443359375,-55.8837890625,-56.5673828125,-56.6650390625,-57.5439453125,-59.2041015625,-60.4736328125,-62.4755859375,-63.7939453125,-66.0888671875,-67.3583984375,-68.6279296875,-70.3857421875,-72.4853515625,-73.6572265625,-74.7314453125,-76.1474609375,-77.7587890625,-79.7119140625,-80.8349609375,-82.0068359375,-82.3486328125,-77.4658203125,-72.6318359375,-67.6025390625,-63.6962890625,-60.5712890625,-56.4208984375,-53.4912109375,-51.7822265625,-53.5400390625,-53.7841796875,-54.4189453125,-55.2001953125,-55.6396484375,-57.5927734375,-59.3505859375,-60.8642578125,-62.5732421875,-64.0869140625,-66.3330078125,-68.4814453125,-69.5556640625,-70.1904296875,-71.8017578125,-73.3642578125,-74.9755859375,-75.9521484375,-77.2216796875,-78.2470703125,-79.5166015625,-79.3212890625,-76.0009765625,-69.6044921875,-64.4775390625,-60.8642578125,-57.6904296875,-53.5888671875,-50.2685546875,-48.9501953125,-49.8291015625,-50.5615234375,-51.0986328125,-51.2451171875,-53.2470703125,-54.3212890625,-56.6650390625,-58.9111328125,-60.3271484375,-61.4990234375,-64.1357421875,-65.3564453125,-66.7724609375,-68.4814453125,-70.1904296875,-71.8994140625,-72.9736328125,-74.0478515625,-75.9521484375,-76.9775390625,-78.1005859375,-78.8818359375,-76.5380859375,-70.7275390625,-65.6494140625,-61.6943359375,-58.5693359375,-54.0771484375,-50.5126953125,-48.9013671875,-49.1455078125,-50.2197265625,-50.9521484375,-51.0498046875,-52.8564453125,-54.4189453125,-55.5908203125,-57.7392578125,-59.0087890625,-60.9619140625,-62.6708984375,-64.1357421875,-65.8935546875,-67.0654296875,-68.4814453125,-69.9462890625,-71.0693359375,-72.2900390625,-73.6572265625,-75.4150390625,-76.9775390625,-77.6123046875,-77.7587890625,-74.4384765625,-68.1884765625,-63.6474609375,-60.4736328125,-55.8837890625,-53.1982421875,-50.0244140625,-48.3642578125,-49.8291015625,-51.0498046875,-52.2216796875,-52.8564453125,-54.4677734375,-57.0068359375,-58.4716796875,-60.3271484375,-61.6455078125,-64.1845703125,-65.6494140625,-67.1630859375,-68.2373046875,-70.5322265625,-71.7529296875,-73.3154296875,-74.7314453125,-76.2451171875,-77.4169921875,-79.0771484375,-80.6396484375,-80.9326171875,-81.1767578125,-76.2451171875,-70.2880859375,-66.3330078125,-62.6708984375,-58.8623046875,-54.8583984375,-52.8564453125,-51.3916015625,-52.6611328125,-52.8564453125,-52.8564453125,-53.9794921875,-55.2001953125,-56.6162109375,-59.0087890625,-60.0341796875,-61.4013671875,-63.6474609375,-65.3076171875,-67.0654296875,-68.2861328125,-70.5322265625,-72.4853515625,-74.2431640625,-75.1708984375,-77.5634765625,-78.5888671875,-80.8837890625,-81.4208984375,-82.5927734375,-79.7607421875,-74.5849609375,-70.1904296875,-66.4306640625,-62.8662109375,-59.3994140625,-57.4951171875,-55.6884765625,-57.2998046875,-58.4716796875,-58.3740234375,-59.3017578125,-60.5224609375,-62.2802734375,-63.6962890625,-65.2587890625,-67.3583984375,-69.1650390625,-70.2880859375,-71.6552734375,-73.1201171875,-74.6337890625,-75.7080078125,-77.1240234375,-78.8330078125,-79.4189453125,-81.4697265625,-82.3486328125,-84.2529296875,-85.0830078125,-84.3505859375,-81.2744140625,-76.5380859375,-71.4599609375,-67.8466796875,-64.5263671875,-60.9619140625,-58.1787109375,-56.9580078125,-58.9111328125,-59.1064453125,-59.4482421875,-61.0595703125,-62.9638671875,-63.8916015625,-65.6982421875,-67.2119140625,-69.1650390625,-70.4345703125,-71.4599609375,-72.6806640625,-73.6572265625,-75.0732421875,-76.5380859375,-77.5146484375,-78.5888671875,-79.7119140625,-80.9326171875,-81.8603515625,-83.6181640625,-84.3505859375,-83.6181640625,-78.9306640625,-73.7548828125,-69.7509765625,-65.7958984375,-62.0361328125,-59.3505859375,-56.6650390625,-55.8837890625,-57.1533203125,-57.2509765625,-57.2021484375,-57.9833984375,-58.8623046875,-60.9619140625,-62.1826171875,-63.6474609375,-65.5517578125,-67.2607421875,-68.4814453125,-70.4345703125,-71.3623046875,-72.7294921875,-73.9501953125,-74.9267578125,-76.0009765625,-78.0029296875,-78.4423828125,-79.9560546875,-80.2978515625,-80.2001953125,-75.3173828125,-71.0693359375,-67.0654296875,-63.6474609375,-59.9853515625,-57.2021484375,-55.1025390625,-54.9560546875,-56.3720703125,-56.5673828125,-57.1044921875,-57.8369140625,-59.2529296875,-60.1318359375,-61.7919921875,-63.6962890625,-64.7216796875,-66.1865234375,-67.7490234375,-69.3115234375,-70.0927734375,-71.5087890625,-72.6806640625,-73.6083984375,-75.4150390625,-76.1474609375,-77.1240234375,-79.2236328125,-79.2236328125,-79.4189453125,-77.2705078125,-71.8505859375,-66.8212890625,-62.7197265625,-58.8623046875,-55.2001953125,-51.6845703125,-48.8037109375,-49.8779296875,-50.6591796875,-51.4892578125,-51.7333984375,-53.3935546875,-55.4443359375,-57.1533203125,-59.0087890625,-61.1572265625,-62.6708984375,-65.1123046875,-66.3818359375,-67.9931640625,-69.4580078125,-71.0205078125,-71.9970703125,-73.5107421875,-74.5361328125,-75.4638671875,-76.8798828125,-78.1005859375,-78.9306640625,-79.2236328125,-77.4169921875,-71.8505859375,-66.7724609375,-62.7685546875,-59.1552734375,-54.9072265625,-51.1962890625,-48.6083984375,-48.7548828125,-49.4384765625,-48.8525390625,-49.6337890625,-50.0244140625,-50.8544921875,-52.5146484375,-53.5888671875,-55.6884765625,-56.9091796875,-58.0810546875,-59.1552734375,-60.8642578125,-62.1337890625,-63.4521484375,-65.0634765625,-66.4306640625,-67.2607421875,-67.7978515625,-70.1904296875,-70.9716796875,-71.9482421875,-72.7783203125,-70.0927734375,-65.0634765625,-59.7900390625,-56.4208984375,-52.7587890625,-50.0244140625,-46.7529296875,-44.7021484375,-45.5322265625,-46.1181640625,-46.4599609375,-47.5341796875,-48.0712890625,-48.8525390625,-50.4638671875,-52.5634765625,-54.0771484375,-55.2978515625,-57.2509765625,-58.0810546875,-59.6923828125,-60.9619140625,-62.7197265625,-64.2822265625,-65.6005859375,-66.3818359375,-68.3837890625,-69.7998046875,-71.3134765625,-72.1435546875,-72.4853515625,-67.8955078125,-62.0361328125,-57.4462890625,-53.4423828125,-49.7802734375,-45.6298828125,-43.0908203125,-40.8935546875,-42.3583984375,-42.7001953125,-43.1396484375,-43.6767578125,-45.3369140625,-47.9736328125,-48.7060546875,-51.0009765625,-53.1982421875,-54.5654296875,-56.5185546875,-58.3740234375,-59.6435546875,-60.9619140625,-63.2568359375,-65.0634765625,-66.7236328125,-67.5537109375,-69.7021484375,-71.5576171875,-72.9248046875,-73.5107421875,-73.5107421875,-68.2373046875,-62.4267578125,-58.4716796875,-54.8583984375,-51.1474609375,-47.1923828125,-45.0927734375,-43.9697265625,-45.2880859375,-45.6298828125,-45.2880859375,-46.8994140625,-47.7783203125,-49.7314453125,-50.6103515625,-52.8564453125,-54.6142578125,-56.5185546875,-57.8857421875,-59.4482421875,-61.1083984375,-62.6220703125,-64.1845703125,-65.0146484375,-67.0654296875,-67.7001953125,-69.2138671875,-71.1181640625,-71.4599609375,-72.7783203125,-71.5087890625,-66.1865234375,-60.6689453125,-56.5185546875,-52.7099609375,-49.2431640625,-45.2880859375,-43.1396484375,-42.7490234375,-43.1884765625,-43.6767578125,-43.8720703125,-45.0927734375,-46.7041015625,-48.2666015625,-50.4150390625,-52.2216796875,-53.9306640625,-55.9814453125,-57.5927734375,-58.4716796875,-60.9130859375,-61.9384765625,-63.8916015625,-65.5029296875,-67.3095703125,-68.4326171875,-69.7998046875,-71.2646484375,-72.2412109375,-72.4365234375,-71.3623046875,-64.8681640625,-60.5224609375,-56.8115234375,-52.5146484375,-48.2177734375,-45.2392578125,-42.1142578125,-42.1630859375,-43.3837890625,-43.7255859375,-44.6044921875,-44.6044921875,-46.7041015625,-48.2666015625,-49.8291015625,-51.7333984375,-53.3935546875,-54.9072265625,-56.6162109375,-58.1787109375,-59.4970703125,-61.9873046875,-63.3056640625,-65.7958984375,-67.0654296875,-68.3349609375,-69.8974609375,-72.0458984375,-72.9736328125,-74.1455078125,-73.3154296875,-67.6513671875,-62.3291015625,-57.7880859375,-54.4189453125,-50.0244140625,-46.1669921875,-43.2861328125,-42.6513671875,-44.2138671875,-44.9951171875,-45.9228515625,-47.8759765625,-49.7314453125,-52.0751953125,-53.8330078125,-55.4931640625,-58.0322265625,-59.7412109375,-61.4501953125,-63.0615234375,-64.1357421875,-66.0400390625,-66.6748046875,-68.2861328125,-69.8486328125,-71.4599609375,-72.6318359375,-74.2919921875,-75.6591796875,-76.0009765625,-77.4658203125,-75.0244140625,-70.0927734375,-64.5751953125,-59.9853515625,-56.1279296875,-51.8798828125,-48.2666015625,-45.5322265625,-45.4833984375,-46.0205078125,-46.2646484375,-46.3623046875,-47.5830078125,-49.0478515625,-50.5615234375,-52.1728515625,-54.2236328125,-55.7861328125,-56.9580078125,-59.5458984375,-60.9619140625,-62.1826171875,-63.6962890625,-65.5029296875,-67.4072265625,-68.9697265625,-70.0927734375,-72.2900390625,-73.3154296875,-75.0244140625,-76.2939453125,-76.1474609375,-71.5087890625,-66.4306640625,-62.2314453125,-59.3017578125,-55.0537109375,-52.1728515625,-49.3408203125,-48.5107421875,-49.3408203125,-49.1943359375,-49.7314453125,-51.0009765625,-51.8310546875,-53.6376953125,-55.1025390625,-56.6162109375,-58.2275390625,-60.5224609375,-61.0595703125,-63.5009765625,-64.4775390625,-65.5029296875,-67.8955078125,-68.9697265625,-70.3857421875,-71.5576171875,-72.7294921875,-74.7314453125,-75.0732421875,-76.8310546875,-76.5380859375,-73.1689453125,-67.8466796875,-63.5009765625,-59.7412109375,-56.2744140625,-52.2216796875,-49.2431640625,-47.3388671875,-48.6572265625,-49.8291015625,-50.7568359375,-51.2451171875,-53.1005859375,-55.1025390625,-56.7626953125,-58.9111328125,-60.4248046875,-62.5244140625,-63.9404296875,-65.2099609375,-67.1630859375,-67.8955078125,-69.2138671875,-70.9716796875,-72.5341796875,-72.7294921875,-75.0732421875,-76.0009765625,-77.5634765625,-78.4423828125,-78.8330078125,-75.1220703125,-69.8974609375,-65.2099609375,-62.0361328125,-58.0810546875,-55.0537109375,-51.8310546875,-50.5126953125,-51.0498046875,-52.0263671875,-51.7333984375,-52.2705078125,-53.7841796875,-55.0537109375,-56.4208984375,-58.0810546875,-59.4482421875,-61.2060546875,-62.0361328125,-64.4775390625,-65.8447265625,-67.1142578125,-68.2861328125,-69.9951171875,-70.5810546875,-71.9970703125,-73.3642578125,-74.9755859375,-76.2451171875,-76.3427734375,-75.4150390625,-70.3857421875,-65.3076171875,-61.8408203125,-59.0576171875,-55.9326171875,-52.5146484375,-50.8544921875,-51.8798828125,-52.6611328125,-52.8076171875,-53.7353515625,-54.8095703125,-56.9091796875,-58.2763671875,-60.0341796875,-61.7431640625,-63.5009765625,-64.9169921875,-66.4794921875,-67.4072265625,-69.4580078125,-70.8251953125,-72.0947265625,-72.9248046875,-75.0732421875,-76.0498046875,-77.8564453125,-79.3701171875,-79.7119140625,-77.6123046875,-71.7529296875,-67.8466796875,-64.0380859375,-59.9365234375,-56.6162109375,-53.5888671875,-51.0498046875,-51.8310546875,-52.9052734375,-53.1494140625,-54.3212890625,-55.1513671875,-57.1044921875,-58.6669921875,-60.0341796875,-61.7431640625,-63.9404296875,-65.8935546875,-67.0166015625,-68.5791015625,-70.2880859375,-71.3623046875,-72.0458984375,-74.0478515625,-75.5615234375,-76.2451171875,-78.3935546875,-79.2236328125,-80.2001953125,-78.4423828125,-73.4130859375,-68.2373046875,-63.8916015625,-60.6201171875,-56.9091796875,-53.6376953125,-50.4638671875,-50.1220703125,-51.0009765625,-51.2451171875,-51.9287109375,-52.7099609375,-53.4912109375,-55.7861328125,-56.8115234375,-58.4228515625,-60.2783203125,-61.9873046875,-62.9638671875,-64.7216796875,-65.6005859375,-67.6513671875,-69.0185546875,-70.2392578125,-70.9228515625,-73.0712890625,-73.8525390625,-74.4873046875,-75.3173828125,-74.9755859375,-71.0205078125,-65.2587890625,-61.6943359375,-58.0810546875,-54.9072265625,-51.7333984375,-49.3896484375,-49.1455078125,-50.5615234375,-50.5615234375,-50.6591796875,-51.3427734375,-52.7099609375,-54.4677734375,-56.2744140625,-57.8857421875,-59.9365234375,-61.4501953125,-63.1103515625,-64.8193359375,-65.8935546875,-67.3095703125,-68.7744140625,-70.0439453125,-70.7763671875,-71.6064453125,-73.0712890625,-74.6826171875,-75.0244140625,-73.9013671875,-69.1162109375,-64.4287109375,-59.7412109375,-56.3720703125,-52.8564453125,-49.1943359375,-46.6064453125,-45.5810546875,-46.8505859375,-46.4111328125,-46.7529296875,-47.7783203125,-48.9013671875,-50.6591796875,-52.6123046875,-53.9794921875,-54.6630859375,-56.8115234375,-57.8369140625,-59.1552734375,-60.8154296875,-61.6943359375,-63.5986328125,-64.7216796875,-66.2353515625,-67.5048828125,-69.4580078125,-70.7763671875,-71.8017578125,-71.4599609375,-68.1884765625,-62.7685546875,-58.5693359375,-54.6630859375,-51.3916015625,-47.8271484375,-44.9462890625,-42.7978515625,-43.8232421875,-44.7998046875,-44.5556640625,-45.6298828125,-47.0458984375,-48.3154296875,-48.9990234375,-51.5869140625,-53.2958984375,-54.6142578125,-55.8349609375,-57.5439453125,-58.8134765625,-60.1318359375,-61.7431640625,-63.1103515625,-64.3798828125,-65.2587890625,-66.7236328125,-68.3837890625,-69.5068359375,-70.2392578125,-69.8974609375,-65.7958984375,-59.7900390625,-55.6396484375,-51.8798828125,-47.9248046875,-44.4091796875,-41.3818359375,-40.7470703125,-41.0400390625,-41.4306640625,-41.3330078125,-41.8701171875,-43.7255859375,-45.0439453125,-47.7783203125,-49.1455078125,-50.5615234375,-52.0263671875,-53.9306640625,-55.5908203125,-56.9091796875,-59.3505859375,-60.3759765625,-62.2314453125,-63.1103515625,-65.0146484375,-66.1376953125,-67.5537109375,-68.8232421875,-69.3115234375,-65.9912109375,-60.7177734375,-55.8349609375,-52.2705078125,-48.7060546875,-45.1904296875,-42.0166015625,-39.2333984375,-40.2587890625,-40.7470703125,-41.6748046875,-41.5283203125,-43.5791015625,-44.5556640625,-46.0693359375,-48.4130859375,-50.3662109375,-51.8310546875,-54.0283203125,-55.4931640625,-57.7880859375,-60.1806640625,-61.2548828125,-62.6708984375,-64.7705078125,-65.7958984375,-67.5537109375,-69.2626953125,-71.1181640625,-72.3876953125,-72.4365234375,-68.5791015625,-62.8173828125,-57.9833984375,-54.5166015625,-50.7080078125,-46.6064453125,-42.8466796875,-41.2353515625,-42.0654296875,-43.2373046875,-43.6767578125,-44.7998046875,-46.1669921875,-47.9248046875,-50.2197265625,-52.9541015625,-53.9794921875,-55.8349609375,-58.1787109375,-59.6435546875,-61.6943359375,-62.6708984375,-64.4775390625,-65.9912109375,-66.7724609375,-68.5791015625,-70.2392578125,-71.3134765625,-72.9736328125,-74.0478515625,-74.2919921875,-72.5341796875,-66.6259765625,-61.4990234375,-57.5927734375,-53.5400390625,-49.5849609375,-46.4599609375,-43.5302734375,-43.3837890625,-44.8974609375,-44.4580078125,-45.0927734375,-45.3857421875,-47.1435546875,-49.5849609375,-51.1962890625,-52.2705078125,-54.2724609375,-56.3232421875,-57.7880859375,-59.4970703125,-61.2548828125,-62.8173828125,-64.3310546875,-66.0400390625,-67.8466796875,-68.4326171875,-70.1904296875,-71.6552734375,-72.9736328125,-74.0478515625,-71.3623046875,-66.4794921875,-61.5478515625,-58.2275390625,-54.3212890625,-51.1474609375,-47.6806640625,-46.6552734375,-46.6064453125,-46.7529296875,-46.8505859375,-47.0458984375,-47.8759765625,-49.2919921875,-51.4892578125,-53.2470703125,-55.0048828125,-57.2998046875,-59.4970703125,-61.1083984375,-62.7197265625,-63.4521484375,-66.0400390625,-67.2607421875,-68.1884765625,-69.8486328125,-70.7275390625,-72.8759765625,-73.9013671875,-75.1220703125,-74.6826171875,-70.6298828125,-64.7216796875,-60.9619140625,-57.7392578125,-53.9306640625,-50.9033203125,-48.4130859375,-47.3876953125,-48.8037109375,-49.7314453125,-50.6103515625,-51.5869140625,-53.5888671875,-55.2490234375,-56.6650390625,-58.4228515625,-59.8388671875,-62.0849609375,-63.4033203125,-64.9169921875,-66.8701171875,-67.7490234375,-68.5302734375,-70.6298828125,-71.3134765625,-72.4365234375,-74.4873046875,-75.1220703125,-76.2451171875,-76.8310546875,-73.4130859375,-67.7490234375,-63.5498046875,-60.3271484375,-56.8115234375,-53.0517578125,-50.4638671875,-48.8525390625,-50.5126953125,-49.9267578125,-49.9755859375,-51.2451171875,-51.3427734375,-53.1494140625,-53.6865234375,-55.4931640625,-56.9580078125,-58.6181640625,-60.2783203125,-61.4501953125,-62.4755859375,-63.5498046875,-64.8193359375,-66.2353515625,-66.4794921875,-68.3837890625,-70.1416015625,-71.4599609375,-72.0458984375,-71.7041015625,-66.9189453125,-62.4755859375,-58.1298828125,-54.9560546875,-51.3916015625,-48.3154296875,-45.5810546875,-45.4345703125,-46.6552734375,-46.7529296875,-47.3388671875,-48.8037109375,-50.6103515625,-52.3681640625,-54.1259765625,-55.9814453125,-57.6904296875,-58.5205078125,-60.1318359375,-61.7919921875,-63.1591796875,-64.7216796875,-66.2353515625,-66.5771484375,-68.3837890625,-69.7021484375,-71.0693359375,-72.0458984375,-71.8017578125,-68.7255859375,-63.1103515625,-57.8369140625,-54.4677734375,-50.8544921875,-46.6552734375,-43.6767578125,-42.0654296875,-42.7978515625,-43.9697265625,-44.1650390625,-45.1904296875,-46.5087890625,-48.7060546875,-50.3662109375,-52.7099609375,-54.5654296875,-56.5185546875,-58.0322265625,-60.2783203125,-61.7919921875,-63.8427734375,-64.8193359375,-66.3818359375,-66.9677734375,-69.0185546875,-70.1904296875,-71.1669921875,-72.4365234375,-72.2900390625,-69.1162109375,-63.6474609375,-58.3740234375,-55.5908203125,-51.5869140625,-47.5830078125,-44.4580078125,-42.8955078125,-44.0185546875,-44.6533203125,-44.8486328125,-45.3857421875,-45.8740234375,-47.6806640625,-48.8525390625,-50.3662109375,-52.1728515625,-53.6376953125,-55.0048828125,-56.8115234375,-57.8369140625,-59.5947265625,-60.0341796875,-61.9873046875,-63.6474609375,-64.2333984375,-66.3330078125,-67.9931640625,-68.8720703125,-69.3115234375,-66.0400390625,-60.6689453125,-55.9326171875,-52.3193359375,-49.1943359375,-45.6298828125,-42.7001953125,-41.7724609375,-42.9931640625,-43.2861328125,-43.0419921875,-43.4814453125,-45.5322265625,-46.9482421875,-48.1689453125,-50.0244140625,-51.5380859375,-53.3447265625,-54.9072265625,-57.0556640625,-58.6669921875,-59.9853515625,-61.6455078125,-62.7685546875,-64.1357421875,-65.5029296875,-67.1630859375,-68.4326171875,-68.8720703125,-69.5068359375,-68.0908203125,-62.1826171875,-57.1044921875,-53.1005859375,-49.3408203125,-45.3369140625,-41.9189453125,-39.2333984375,-39.1845703125,-39.9169921875,-40.6494140625,-40.9912109375,-42.7001953125,-44.7509765625,-46.2158203125,-48.2666015625,-50.1708984375,-52.1240234375,-54.2236328125,-56.2255859375,-57.9345703125,-59.5458984375,-60.5712890625,-62.8662109375,-63.5498046875,-65.1123046875,-66.1865234375,-67.8466796875,-68.9208984375,-70.0439453125,-69.7998046875,-66.0400390625,-59.5947265625,-55.0048828125,-51.2451171875,-47.4853515625,-43.4326171875,-40.0146484375,-38.7451171875,-39.1845703125,-39.2822265625,-39.8681640625,-40.9912109375,-41.4794921875,-43.3349609375,-44.2138671875,-46.2646484375,-47.6318359375,-49.5361328125,-50.5615234375,-52.3681640625,-54.1259765625,-55.8837890625,-57.4462890625,-58.3740234375,-59.9853515625,-61.5966796875,-63.2568359375,-64.3798828125,-65.7958984375,-65.8447265625,-63.2080078125,-57.4462890625,-53.3447265625,-48.7060546875,-46.3623046875,-42.6513671875,-39.6728515625,-38.5986328125,-39.0869140625,-40.3076171875,-40.8935546875,-40.9912109375,-42.5048828125,-44.2138671875,-46.1181640625,-47.3388671875,-49.2431640625,-50.5615234375,-51.9287109375,-53.8818359375,-55.3955078125,-56.9580078125,-58.5693359375,-60.8154296875,-61.8896484375,-62.9638671875,-64.5751953125,-66.1376953125,-66.9677734375,-68.2861328125,-65.2099609375,-59.6923828125,-54.9072265625,-51.2451171875,-47.0947265625,-44.0185546875,-40.5029296875,-37.4755859375,-38.2568359375,-38.8427734375,-39.1845703125,-39.6728515625,-40.8935546875,-42.8466796875,-44.8974609375,-46.8017578125,-48.5595703125,-51.1474609375,-52.6123046875,-54.7607421875,-56.2744140625,-58.7646484375,-61.0595703125,-62.2802734375,-64.8681640625,-66.7236328125,-67.4560546875,-69.8974609375,-70.6298828125,-71.8994140625,-71.8505859375,-68.8232421875,-62.5732421875,-57.9833984375,-53.9794921875,-50.5615234375,-46.6064453125,-43.1396484375,-41.5771484375,-41.8212890625,-42.7001953125,-43.1884765625,-43.8232421875,-45.2880859375,-46.8505859375,-48.0712890625,-50.1708984375,-51.4892578125,-52.4658203125,-54.4677734375,-55.8837890625,-57.3486328125,-59.0087890625,-60.5224609375,-61.4013671875,-63.2568359375,-64.1845703125,-65.7470703125,-66.5771484375,-68.3837890625,-69.8974609375,-68.8232421875,-63.5009765625,-59.0087890625,-54.8583984375,-51.8798828125,-48.6572265625,-45.6787109375,-43.7744140625,-43.3349609375,-45.0439453125,-45.1904296875,-45.7763671875,-46.9482421875,-48.4130859375,-50.2197265625,-51.8310546875,-53.3935546875,-55.8837890625,-57.1044921875,-58.9599609375,-61.0107421875,-61.7431640625,-63.6962890625,-65.0146484375,-66.4306640625,-67.6025390625,-68.6279296875,-70.1416015625,-71.3623046875,-71.8994140625,-72.0458984375,-68.8720703125,-64.0380859375,-58.6669921875,-55.3466796875,-51.7333984375,-48.9013671875,-45.3857421875,-43.8720703125,-44.9951171875,-46.2646484375,-45.4833984375,-46.5576171875,-47.5341796875,-49.0478515625,-50.6103515625,-52.0751953125,-53.6376953125,-55.1513671875,-56.4208984375,-57.2021484375,-58.8623046875,-60.3759765625,-61.5966796875,-62.9150390625,-64.2333984375,-66.0400390625,-67.2119140625,-68.8232421875,-70.6787109375,-71.8017578125,-71.0693359375,-66.6259765625,-62.4267578125,-58.0322265625,-54.8095703125,-50.8544921875,-48.0712890625,-45.4833984375,-44.5068359375,-45.3857421875,-46.2646484375,-46.6552734375,-47.2900390625,-48.3642578125,-50.0732421875,-51.4404296875,-52.8564453125,-54.4189453125,-56.3232421875,-57.4951171875,-58.7646484375,-59.4970703125,-60.2294921875,-62.2802734375,-62.3779296875,-64.1357421875,-64.7216796875,-66.3330078125,-68.0419921875,-68.1884765625,-67.7978515625,-63.4521484375,-58.1787109375,-53.9306640625,-50.6591796875,-46.4111328125,-43.6279296875,-40.4052734375,-39.8681640625,-40.9912109375,-41.1376953125,-40.9423828125,-41.2841796875,-41.9189453125,-44.0185546875,-44.9951171875,-46.1669921875,-48.1689453125,-49.8779296875,-51.0498046875,-52.5634765625,-53.7353515625,-55.8349609375,-56.5185546875,-58.1298828125,-59.3505859375,-60.6689453125,-62.3779296875,-63.6474609375,-63.8916015625,-60.9130859375,-56.0791015625,-51.4404296875,-47.6806640625,-44.2626953125,-41.3818359375,-38.0126953125,-35.6689453125,-37.2314453125,-37.8662109375,-37.7685546875,-38.8916015625,-39.8681640625,-41.1865234375,-42.6513671875,-44.3115234375,-45.6787109375,-47.4853515625,-49.2919921875,-50.9033203125,-52.2216796875,-54.1259765625,-55.5419921875,-57.3486328125,-58.4716796875,-60.1318359375,-61.0107421875,-62.2314453125,-63.4521484375,-63.5986328125,-59.9853515625,-54.0283203125,-49.0478515625,-45.2880859375,-41.3818359375,-37.3291015625,-34.2041015625,-32.2021484375,-32.6416015625,-33.4228515625,-34.5458984375,-35.3271484375,-36.7919921875,-38.2080078125,-40.4052734375,-41.9189453125,-43.7744140625,-45.7763671875,-47.3876953125,-49.3408203125,-51.3916015625,-53.5400390625,-55.2978515625,-56.9580078125,-58.2763671875,-59.6923828125,-61.6455078125,-62.3779296875,-63.9892578125,-64.7705078125,-63.0615234375,-58.7158203125,-52.5146484375,-48.3154296875,-44.4580078125,-40.5517578125,-36.7919921875,-34.1552734375,-33.1298828125,-33.8623046875,-34.2041015625,-34.0576171875,-35.0830078125,-36.4990234375,-38.5498046875,-39.0380859375,-41.0888671875,-42.7001953125,-44.2626953125,-45.5810546875,-47.4365234375,-48.4130859375,-50.1220703125,-51.7822265625,-53.5400390625,-55.1513671875,-56.4208984375,-58.4716796875,-59.9853515625,-61.1083984375,-62.4267578125,-60.5712890625,-55.8349609375,-51.1474609375,-47.3388671875,-43.8232421875,-40.1123046875,-37.1337890625,-35.4736328125,-35.9130859375,-36.7431640625,-37.3779296875,-37.8662109375,-39.0380859375,-41.2353515625,-42.5048828125,-44.2626953125,-45.7763671875,-47.5341796875,-49.7314453125,-51.0986328125,-51.9775390625,-53.9306640625,-55.2490234375,-56.6650390625,-57.9833984375,-59.4970703125,-60.5712890625,-62.3291015625,-63.2080078125,-64.6240234375,-65.2099609375,-63.2568359375,-58.1298828125,-52.8076171875,-49.2919921875,-45.3857421875,-41.4794921875,-38.0126953125,-35.7666015625,-35.4248046875,-36.4990234375,-36.5478515625,-37.4755859375,-38.6962890625,-40.0146484375,-42.0654296875,-43.4814453125,-44.6533203125,-46.3134765625,-48.1201171875,-49.7314453125,-51.7333984375,-53.0029296875,-54.6142578125,-56.2255859375,-58.2275390625,-60.6201171875,-61.9384765625,-63.5498046875,-65.8935546875,-66.5771484375,-68.4326171875,-69.4580078125,-66.0400390625,-61.0595703125,-56.5673828125,-52.5146484375,-48.7548828125,-44.7509765625,-41.3818359375,-39.5751953125,-39.9169921875,-40.6005859375,-41.2353515625,-41.4794921875,-42.7490234375,-44.6044921875,-45.8251953125,-47.7783203125,-48.7548828125,-50.9521484375,-52.2216796875,-54.0283203125,-55.2978515625,-56.6162109375,-57.9833984375,-59.3505859375,-60.8154296875,-62.0849609375,-63.2080078125,-64.5751953125,-65.4052734375,-66.2353515625,-66.7724609375,-63.6962890625,-58.6669921875,-54.5166015625,-51.1474609375,-47.8271484375,-44.8974609375,-41.9189453125,-40.6005859375,-41.2841796875,-42.3583984375,-41.9677734375,-42.9931640625,-44.4091796875,-45.1904296875,-47.2900390625,-48.5107421875,-50.7568359375,-52.5634765625,-53.9306640625,-55.2978515625,-57.0556640625,-58.2763671875,-60.0830078125,-61.4013671875,-62.4755859375,-63.7451171875,-65.0634765625,-66.7236328125,-68.0908203125,-68.5791015625,-65.9423828125,-61.2548828125,-56.9580078125,-52.5146484375,-49.2919921875,-45.6787109375,-42.8955078125,-40.7958984375,-40.8935546875,-41.7236328125,-41.2841796875,-42.4072265625,-42.7978515625,-44.3603515625,-45.7275390625,-47.1923828125,-48.9501953125,-51.1474609375,-52.4658203125,-54.1748046875,-55.6884765625,-57.0068359375,-59.1064453125,-59.8876953125,-61.0595703125,-62.2314453125,-63.1591796875,-64.4287109375,-65.5029296875,-66.0400390625,-65.9423828125,-61.4013671875,-56.2744140625,-51.8310546875,-49.1455078125,-45.9228515625,-41.5283203125,-39.8681640625,-39.2822265625,-40.3564453125,-40.5029296875,-41.3818359375,-41.9677734375,-43.7255859375,-46.2646484375,-46.8994140625,-48.5595703125,-50.5126953125,-51.3427734375,-52.8076171875,-54.1748046875,-55.4443359375,-56.4697265625,-57.6904296875,-58.6181640625,-59.9853515625,-60.7177734375,-62.1337890625,-63.3056640625,-63.9892578125,-65.2099609375,-63.0126953125,-57.2509765625,-52.8076171875,-49.0966796875,-45.4833984375,-41.8701171875,-39.4775390625,-37.4755859375,-37.8173828125,-39.1357421875,-38.7451171875,-39.5751953125,-40.5517578125,-42.3095703125,-43.7744140625,-45.4833984375,-46.3623046875,-48.7060546875,-49.6337890625,-51.1474609375,-52.8564453125,-54.1748046875,-54.9560546875,-56.8115234375,-58.3251953125,-59.0576171875,-60.5224609375,-62.4267578125,-63.5986328125,-64.0869140625,-61.2060546875,-55.5419921875,-51.5869140625,-48.0224609375,-44.6533203125,-41.9189453125,-38.9892578125,-37.6708984375,-38.9892578125,-40.0146484375,-39.9169921875,-40.4052734375,-41.0888671875,-43.0908203125,-44.8486328125,-46.8017578125,-47.8759765625,-49.9755859375,-52.0263671875,-53.8330078125,-54.7607421875,-56.4697265625,-58.0322265625,-59.5947265625,-61.0107421875,-62.5244140625,-64.0380859375,-65.6494140625,-66.5283203125,-66.1376953125,-60.5224609375,-56.2255859375,-52.1240234375,-48.2177734375,-44.5068359375,-41.6259765625,-38.9404296875,-38.2080078125,-39.3798828125,-39.6728515625,-39.9169921875,-41.0888671875,-42.7490234375,-43.6767578125,-45.7763671875,-47.9248046875,-49.0478515625,-50.4638671875,-52.5634765625,-53.6865234375,-54.8095703125,-56.6162109375,-57.8369140625,-58.9599609375,-60.5224609375,-60.9130859375,-62.2314453125,-62.9150390625,-63.9892578125,-62.8662109375
